117.470560000000	70.4967810000000	49.3320110000000	51.8522170000000	62.8502010000000	103.447810000000	83.4205800000000	58.5241130000000	0	4	4	0	2	106	108	0	1385.42880000000	793.083130000000	234.221440000000	125.731880000000	660.383650000000	7937.28420000000	5351.03150000000	181.693080000000	89.3610090000000	111.420140000000	139.382640000000	241.733740000000	135.094760000000	109.741800000000	101.792820000000	196.423900000000	54.4455540000000	54.4455540000000	56.4435560000000	225.274730000000	58.4415580000000	55.4445550000000	55.4445550000000	151.348650000000
117.477080000000	70.2487060000000	49.2472640000000	51.8291480000000	62.7669700000000	103.321860000000	83.3604780000000	58.4666990000000	0	4	4	0	2	106	108	0	1379.36950000000	780.940250000000	235.946400000000	125.817860000000	667.117100000000	7960.72570000000	5359.71660000000	181.958420000000	113.469060000000	109.712620000000	157.749010000000	204.978690000000	102.332730000000	61.0999380000000	66.0643960000000	193.953990000000	55.4445550000000	55.4445550000000	71.4285710000000	195.304700000000	54.4455540000000	53.4465530000000	53.4465530000000	146.353650000000
117.758460000000	70.2658670000000	49.2622170000000	51.6564300000000	63.0243120000000	103.723650000000	83.3188840000000	58.6122650000000	0	4	4	0	2	106	108	0	1385.96750000000	780.070500000000	235.915410000000	129.482800000000	667.242420000000	7982.31770000000	5331.87440000000	186.316330000000	84.4278300000000	85.3186320000000	157.986050000000	249.295310000000	106.346260000000	64.3164970000000	68.9712770000000	208.711630000000	53.4465530000000	54.4455540000000	56.4435560000000	236.263740000000	54.4455540000000	53.4465530000000	54.4455540000000	159.340660000000
117.665580000000	70.1021860000000	49.3914640000000	51.6675850000000	62.8560050000000	103.405200000000	83.2572700000000	58.6460520000000	0	4	4	0	4	107	108	0	1407.49530000000	778.963160000000	233.623550000000	130.255340000000	666.852770000000	7951.04830000000	5325.24250000000	191.894770000000	103.999080000000	127.065320000000	154.024070000000	250.850470000000	114.104340000000	111.876680000000	116.396250000000	234.414890000000	54.4455540000000	55.4445550000000	66.4335660000000	264.235760000000	54.4455540000000	55.4445550000000	55.4445550000000	206.293710000000
117.991850000000	69.9932480000000	49.4333830000000	51.6012970000000	62.9100240000000	103.317500000000	83.3915170000000	58.5925240000000	0	4	4	0	2	107	108	0	1399.42570000000	777.403180000000	233.602510000000	130.252340000000	667.909700000000	7958.05510000000	5367.14100000000	187.546420000000	115.534780000000	114.109300000000	144.076490000000	236.647200000000	87.8296420000000	85.6986540000000	64.1442930000000	168.831610000000	55.4445550000000	55.4445550000000	67.4325670000000	214.285710000000	54.4455540000000	54.4455540000000	53.4465530000000	68.4315680000000
117.876200000000	70.1557800000000	49.4802930000000	51.5011470000000	62.9764130000000	103.633860000000	83.7174330000000	58.6138690000000	0	4	4	0	2	106	108	0	1403.58940000000	779.077990000000	236.017630000000	131.026390000000	669.877220000000	7971.94480000000	5374.26870000000	190.153620000000	100.739750000000	96.7767470000000	122.731940000000	239.489370000000	120.632120000000	67.8485260000000	77.5563140000000	177.824730000000	54.4455540000000	54.4455540000000	54.4455540000000	223.276720000000	54.4455540000000	53.4465530000000	53.4465530000000	101.398600000000
117.356040000000	69.8238690000000	49.4827340000000	51.5691380000000	62.7913450000000	103.087620000000	83.3139210000000	58.4204590000000	0	4	4	0	2	107	109	0	1388.35730000000	768.733120000000	237.235180000000	129.880500000000	670.606410000000	7929.46190000000	5325.66390000000	191.443330000000	73.6141160000000	103.352670000000	187.925620000000	247.362090000000	106.810750000000	102.795170000000	119.031340000000	186.684850000000	54.4455540000000	54.4455540000000	115.384620000000	213.286710000000	54.4455540000000	54.4455540000000	56.4435560000000	114.385610000000
117.524310000000	69.9227060000000	49.5742880000000	51.5733400000000	62.7475460000000	103.119890000000	83.5413030000000	58.4954970000000	0	4	6	0	2	107	108	0	1355.94870000000	765.711940000000	243.637960000000	132.216040000000	677.619730000000	7927.28730000000	5369.51160000000	195.291610000000	84.6814640000000	127.016960000000	150.657730000000	270.666830000000	136.145550000000	95.9217720000000	64.6844500000000	197.130270000000	54.4455540000000	55.4445550000000	59.4405590000000	257.242760000000	63.4365630000000	54.4455540000000	54.4455540000000	141.358640000000
117.023380000000	70.1493710000000	49.9195570000000	51.4219340000000	63.0408730000000	103.548250000000	83.9183540000000	58.5612770000000	0	2	5	0	2	106	108	0	1325.92740000000	752.629120000000	263.317460000000	134.614320000000	680.160960000000	7951.03240000000	5384.21590000000	194.404360000000	95.8400570000000	87.4943890000000	182.538490000000	205.412760000000	94.9298910000000	68.6678280000000	67.5125450000000	129.652980000000	54.4455540000000	54.4455540000000	121.378620000000	166.333670000000	54.4455540000000	53.4465530000000	53.4465530000000	57.4425570000000
116.577260000000	69.7840750000000	50.4031510000000	51.4606430000000	62.8792140000000	103.140650000000	83.4760130000000	58.6198190000000	0	2	10	2	2	107	109	0	1304.48370000000	742.109040000000	297.017500000000	146.058790000000	685.214750000000	7927.74530000000	5353.68370000000	194.927770000000	104.718250000000	108.049550000000	96.6961610000000	268.011530000000	106.136110000000	78.9220530000000	107.021030000000	199.807270000000	55.4445550000000	54.4455540000000	54.4455540000000	288.211790000000	54.4455540000000	54.4455540000000	54.4455540000000	142.357640000000
116.475060000000	70.4268930000000	50.7356300000000	51.5370230000000	62.9592810000000	103.205820000000	83.3683410000000	58.6603480000000	0	4	18	2	2	107	109	0	1247.58860000000	824.355900000000	351.777700000000	148.637540000000	680.818210000000	7929.59030000000	5341.17450000000	197.313540000000	97.2832440000000	106.765230000000	123.651550000000	234.604490000000	119.618010000000	99.2915800000000	90.4012440000000	185.927320000000	54.4455540000000	54.4455540000000	63.4365630000000	215.284720000000	54.4455540000000	54.4455540000000	54.4455540000000	120.379620000000
116.561910000000	71.2039090000000	50.8955350000000	52.0730780000000	63.1088380000000	103.829580000000	83.6095610000000	58.8424090000000	0	8	30	2	2	106	108	0	1208.47370000000	995.585310000000	398.084850000000	167.760990000000	682.455100000000	8003.81200000000	5324.79200000000	202.245990000000	109.834480000000	83.0406920000000	155.785570000000	204.657230000000	102.360410000000	103.200370000000	71.4347340000000	173.968470000000	55.4445550000000	53.4465530000000	66.4335660000000	214.285710000000	54.4455540000000	54.4455540000000	53.4465530000000	149.350650000000
116.135510000000	71.6229260000000	51.6645190000000	51.8855080000000	62.9428380000000	103.428930000000	83.4264270000000	58.9001560000000	0	10	34	2	4	106	110	0	1152.67550000000	998.381520000000	454.721370000000	180.990960000000	683.933130000000	8002.99660000000	5342.37190000000	206.780590000000	121.756870000000	102.358990000000	120.602690000000	218.554300000000	127.931600000000	74.5313640000000	80.7413510000000	170.872030000000	55.4445550000000	54.4455540000000	54.4455540000000	219.280720000000	54.4455540000000	53.4465530000000	54.4455540000000	136.363640000000
115.715050000000	71.7102190000000	51.9823070000000	52.1656290000000	62.7706840000000	103.483630000000	83.4738470000000	58.7683540000000	0	10	42	6	6	106	111	2	1094.97190000000	994.259900000000	495.999740000000	204.753270000000	682.466810000000	8001.85400000000	5359.98450000000	220.841140000000	130.090690000000	119.757020000000	147.008710000000	231.575450000000	112.107940000000	116.388300000000	86.0913400000000	187.592040000000	61.4385610000000	54.4455540000000	66.4335660000000	216.283720000000	56.4435560000000	55.4445550000000	54.4455540000000	135.364640000000
115.324810000000	71.7793260000000	52.4500100000000	52.2759170000000	62.9920660000000	103.964520000000	83.7455430000000	58.9790100000000	0	10	44	6	12	106	112	2	1034.08730000000	1001.13860000000	530.993210000000	211.348610000000	701.792040000000	8044.66520000000	5330.48140000000	236.944170000000	124.882420000000	83.8792490000000	135.595840000000	271.018140000000	112.935960000000	61.1428240000000	68.8599210000000	145.890530000000	57.4425570000000	53.4465530000000	56.4435560000000	276.223780000000	54.4455540000000	53.4465530000000	53.4465530000000	77.4225770000000
114.424130000000	71.6937830000000	52.9151600000000	52.4285070000000	62.9687880000000	103.670870000000	83.2061130000000	59.1687670000000	0	10	48	6	22	106	112	4	986.311030000000	1011.32430000000	573.330580000000	217.180160000000	736.929540000000	8072.16410000000	5281.89490000000	248.502880000000	117.025190000000	122.530670000000	156.686420000000	226.225970000000	94.0266480000000	62.8896240000000	82.0951980000000	160.708600000000	55.4445550000000	54.4455540000000	95.4045950000000	214.285710000000	54.4455540000000	53.4465530000000	54.4455540000000	124.375620000000
114.140310000000	71.6317260000000	52.9450340000000	52.3777970000000	62.9331500000000	103.681290000000	82.8052410000000	59.6265270000000	0	12	50	6	26	106	113	4	956.511750000000	1024.23480000000	587.431880000000	222.770500000000	753.845430000000	8045.15840000000	5185.08550000000	261.748810000000	177.201970000000	102.263080000000	141.954560000000	231.803260000000	157.571860000000	112.996600000000	116.059320000000	203.342150000000	133.366630000000	54.4455540000000	93.4065930000000	230.269730000000	73.4265730000000	55.4445550000000	55.4445550000000	148.351650000000
117.926270000000	72.1506460000000	53.5580330000000	52.5795850000000	63.9597880000000	103.930360000000	84.4067850000000	59.5926070000000	4	12	53	8	30	106	112	6	1440.05800000000	1073.41350000000	634.291340000000	241.388760000000	835.850410000000	8046.08800000000	5464.97260000000	268.745360000000	92.1319310000000	102.248990000000	127.360200000000	220.815590000000	96.3398250000000	84.8625570000000	66.7209640000000	183.387590000000	53.4465530000000	54.4455540000000	63.4365630000000	192.307690000000	54.4455540000000	54.4455540000000	53.4465530000000	141.358640000000
119.823800000000	72.1067810000000	55.0029810000000	52.8897520000000	63.9108890000000	104.057610000000	84.0013250000000	59.5151550000000	10	18	62	8	34	106	114	6	2132.33840000000	1124.87330000000	783.119060000000	265.181390000000	880.335020000000	8174.70920000000	5445.90260000000	284.659800000000	112.713660000000	96.5616640000000	163.762830000000	197.140480000000	84.4203080000000	86.9256840000000	120.826580000000	234.577590000000	55.4445550000000	54.4455540000000	67.4325670000000	190.309690000000	53.4465530000000	53.4465530000000	59.4405590000000	236.263740000000
120.495140000000	73.6640820000000	55.2868600000000	52.8751970000000	65.1316020000000	105.725310000000	84.5631260000000	60.0178340000000	12	24	68	10	36	106	115	10	2296.80910000000	1258.59840000000	839.468570000000	290.254310000000	953.452290000000	8428.05570000000	5472.49910000000	320.900450000000	121.250330000000	81.7619670000000	143.813290000000	200.741590000000	85.2709270000000	113.531810000000	137.112200000000	167.720870000000	59.4405590000000	53.4465530000000	81.4185810000000	170.329670000000	54.4455540000000	55.4445550000000	59.4405590000000	132.367630000000
121.128290000000	74.1146820000000	56.4731290000000	52.9579080000000	65.3171960000000	105.900890000000	84.8264200000000	60.6146830000000	12	30	74	10	42	106	116	10	2352.39270000000	1368.32640000000	937.794550000000	310.611190000000	997.763280000000	8496.78750000000	5502.45650000000	353.974190000000	116.555020000000	102.439100000000	135.715130000000	182.193150000000	81.0132210000000	83.3103120000000	60.7729630000000	152.477230000000	62.4375620000000	54.4455540000000	62.4375620000000	144.355640000000	54.4455540000000	54.4455540000000	53.4465530000000	91.4085910000000
121.120660000000	81.1753890000000	57.3956990000000	53.3517810000000	65.3496470000000	105.976460000000	84.7622400000000	60.8755250000000	16	36	80	12	53	106	122	14	2510.88600000000	2410.06150000000	1070.42910000000	328.962330000000	1078.05300000000	8589.77310000000	5525.56440000000	379.352560000000	124.634010000000	83.7156770000000	121.065990000000	208.362740000000	111.733610000000	60.0296680000000	84.1414100000000	184.999140000000	68.4315680000000	53.4465530000000	64.4355640000000	194.305690000000	54.4455540000000	53.4465530000000	54.4455540000000	141.358640000000
122.147670000000	82.6315700000000	58.4813440000000	53.7952880000000	67.2360860000000	105.561990000000	85.0007250000000	61.8533700000000	18	40	90	14	56	106	123	18	2701.12950000000	2676.97160000000	1214.88290000000	371.459680000000	1221.08290000000	8409.05290000000	5515.55560000000	511.980380000000	118.681970000000	126.804960000000	115.970650000000	182.977700000000	129.753300000000	95.8163750000000	127.184310000000	160.563040000000	60.4395600000000	56.4435560000000	55.4445550000000	130.369630000000	54.4455540000000	54.4455540000000	58.4415580000000	114.385610000000
121.959940000000	83.3321370000000	59.6414700000000	54.3700700000000	68.0888310000000	105.627790000000	86.1255300000000	61.8529100000000	20	44	96	14	62	106	124	20	2737.35040000000	2768.28440000000	1297.80510000000	420.060630000000	1331.71170000000	8461.89010000000	5737.25240000000	532.638600000000	106.617570000000	121.327420000000	127.586180000000	180.330760000000	109.634610000000	94.8397690000000	83.3799950000000	165.936490000000	56.4435560000000	59.4405590000000	60.4395600000000	155.344660000000	54.4455540000000	54.4455540000000	54.4455540000000	148.351650000000
123.829710000000	83.6622060000000	60.8699810000000	54.8248320000000	68.4055660000000	105.197920000000	86.1032310000000	62.4585380000000	22	52	100	18	65	108	126	24	3042.59850000000	2877.37620000000	1472.06020000000	458.205700000000	1395.95850000000	8423.23040000000	5749.92730000000	616.154350000000	113.253960000000	138.148070000000	139.240520000000	184.501740000000	98.5412860000000	74.1821240000000	70.9452250000000	156.856430000000	55.4445550000000	72.4275720000000	62.4375620000000	146.353650000000	53.4465530000000	53.4465530000000	53.4465530000000	124.375620000000
125.221320000000	85.9573350000000	62.6262800000000	55.4997660000000	69.5273640000000	105.455060000000	86.5038410000000	63.0323180000000	26	58	110	22	70	108	130	31	3290.02610000000	3194.75580000000	1648.10900000000	515.210160000000	1621.24990000000	8459.80840000000	5813.75810000000	708.136440000000	124.029520000000	93.9405280000000	141.231180000000	189.069670000000	110.685420000000	79.9244100000000	122.860630000000	170.954790000000	74.4255740000000	54.4455540000000	79.4205790000000	142.357640000000	59.4405590000000	54.4455540000000	62.4375620000000	154.345650000000
126.084980000000	155.883030000000	180.129010000000	55.5413400000000	72.0251520000000	104.760770000000	87.4578480000000	63.8250840000000	28	60	114	22	74	106	138	34	3563.72120000000	20212.7050000000	30371.4290000000	534.050570000000	1884.44500000000	8350.91210000000	5977.40200000000	761.090180000000	157.883830000000	134.841710000000	140.068540000000	187.807100000000	115.735280000000	100.171620000000	103.716580000000	187.131640000000	108.391610000000	79.4205790000000	86.4135860000000	152.347650000000	54.4455540000000	54.4455540000000	54.4455540000000	147.352650000000
127.687980000000	158.229770000000	180.872550000000	56.0996380000000	72.4033680000000	105.980390000000	88.0462970000000	64.2762000000000	34	65	118	30	76	104	142	37	3972.61270000000	20833.3310000000	30527.2100000000	607.137000000000	1927.89120000000	8532.97860000000	6129.84070000000	826.473750000000	84.4525290000000	128.767560000000	135.265550000000	182.868560000000	83.7135980000000	98.2747570000000	78.0460060000000	141.841200000000	57.4425570000000	74.4255740000000	83.4165830000000	153.346650000000	54.4455540000000	54.4455540000000	54.4455540000000	88.4115880000000
129.540360000000	158.813690000000	181.285100000000	56.3636260000000	72.7244650000000	106.017570000000	89.9952660000000	64.6285270000000	38	70	125	38	80	104	146	43	4334.61310000000	21032.1530000000	30643.4800000000	643.381840000000	1980.46380000000	8510.38930000000	6423.35020000000	881.656600000000	135.276450000000	117.372070000000	152.946780000000	178.558170000000	92.5313270000000	66.7363660000000	87.9055750000000	184.867230000000	85.4145850000000	69.4305690000000	101.398600000000	147.352650000000	54.4455540000000	53.4465530000000	54.4455540000000	149.350650000000
133.849580000000	160.165510000000	181.955490000000	56.7390730000000	73.3201500000000	107.645240000000	92.4063760000000	65.1855980000000	42	75	130	38	88	104	148	48	5301.89600000000	21427	30937.4840000000	678.813100000000	2036.89050000000	8874.11510000000	6840.11740000000	947.580980000000	156.366820000000	133.821550000000	144.021020000000	182.728090000000	129.358460000000	125.299650000000	100.874680000000	183.361310000000	91.4085910000000	79.4205790000000	91.4085910000000	145.354650000000	56.4435560000000	60.4395600000000	57.4425570000000	159.340660000000
135.677490000000	161.268980000000	182.574560000000	57.5707650000000	75.0424610000000	110.166340000000	93.1698600000000	67.8534360000000	48	84	136	40	93	104	151	55	6080.34070000000	21810.7140000000	31116.5730000000	757.881310000000	2267.40130000000	9496.74920000000	7021.92870000000	1299.25520000000	149.220880000000	142.780480000000	146.531060000000	150.372200000000	96.6383070000000	68.4779840000000	115.195040000000	148.209440000000	95.4045950000000	96.4035960000000	95.4045950000000	98.4015980000000	54.4455540000000	53.4465530000000	55.4445550000000	87.4125870000000
137.775010000000	163.010110000000	183.158260000000	57.2836260000000	75.2119470000000	110.871270000000	92.6217270000000	68.5482840000000	55	86	133	46	96	105	156	61	6679.67180000000	22282.8880000000	31331.2890000000	781.736990000000	2330.19520000000	9524.42070000000	6969.37220000000	1408.98900000000	137.420990000000	135.643640000000	143.720700000000	179.343570000000	116.885550000000	129.765410000000	160.793670000000	203.036400000000	83.4165830000000	83.4165830000000	89.4105890000000	137.362640000000	55.4445550000000	62.4375620000000	84.4155840000000	192.307690000000
139.604310000000	163.692810000000	183.819950000000	58.1103930000000	75.8505630000000	109.596000000000	93.1202120000000	69.2537420000000	62	90	134	52	102	107	160	74	7172.41540000000	22634.5960000000	31533.8750000000	846.194780000000	2471.79160000000	9254.87080000000	7047.61860000000	1559.66830000000	136.172220000000	143.369290000000	151.601430000000	173.701290000000	118.126450000000	107.333790000000	108.426760000000	185.489630000000	88.4115880000000	87.4125870000000	101.398600000000	131.368630000000	59.4405590000000	55.4445550000000	70.4295700000000	137.362640000000
143.630400000000	164.773890000000	184.745020000000	58.4207780000000	76.6414120000000	111.969810000000	95.6309840000000	70.7536030000000	71	96	136	55	103	109	166	80	8242.27290000000	22989.5700000000	31943.2260000000	886.064030000000	2547.15480000000	9813.23280000000	7536.55040000000	1757.63050000000	137.133350000000	145.789170000000	147.553750000000	174.914230000000	106.433750000000	87.1761910000000	83.3033540000000	156.591720000000	88.4115880000000	92.4075920000000	95.4045950000000	124.375620000000	54.4455540000000	54.4455540000000	53.4465530000000	98.4015980000000
150.343590000000	165.938970000000	185.792220000000	58.8087250000000	77.2940170000000	112.090050000000	97.6365880000000	72.0455400000000	76	104	141	60	105	106	166	84	9806.45500000000	23361.8400000000	32332.7520000000	926.894420000000	2663.16190000000	9809.15970000000	7920.23170000000	1893.21680000000	124.564210000000	124.691140000000	141.769700000000	159.245070000000	152.022150000000	92.4577720000000	119.966110000000	180.747920000000	85.4145850000000	70.4295700000000	89.4105890000000	123.376620000000	81.4185810000000	54.4455540000000	55.4445550000000	150.349650000000
154.245280000000	167.331810000000	187.145920000000	60.1588620000000	78.6156360000000	113.704210000000	103.444940000000	72.8441350000000	82	108	144	70	100	106	169	94	11143.8620000000	23937.5660000000	32789.0640000000	1074.87560000000	2775.82860000000	10253.8620000000	9108.12710000000	2068.47490000000	120.276520000000	142.928040000000	149.618430000000	176.508090000000	104.213010000000	95.9633740000000	182.089390000000	164.129100000000	75.4245750000000	86.4135860000000	95.4045950000000	168.331670000000	61.4385610000000	54.4455540000000	146.353650000000	122.377620000000
156.439270000000	169.032630000000	187.446980000000	60.2826020000000	78.7147980000000	114.094710000000	106.958260000000	74.1199920000000	88	112	150	72	100	108	173	101	11777.6940000000	24403.0030000000	32921.1510000000	1112.66800000000	2818.13350000000	10293.4010000000	9920.88130000000	2258.45340000000	119.199870000000	141.694480000000	139.660490000000	166.134650000000	138.978620000000	110.727270000000	122.468790000000	182.958310000000	63.4365630000000	87.4125870000000	85.4145850000000	141.358640000000	92.4075920000000	59.4405590000000	64.4355640000000	149.350650000000
154.280400000000	169.514700000000	187.891510000000	61.3430270000000	78.3647350000000	115.541440000000	107.740500000000	74.9209850000000	88	118	155	78	103	108	178	106	11645.8150000000	24545.7090000000	33105.8190000000	1241.54990000000	2827.76610000000	10574.4630000000	9995.19740000000	2363.21540000000	103.143690000000	148.613630000000	142.951460000000	128.206510000000	148.300780000000	77.8345680000000	121.652660000000	168.781380000000	59.4405590000000	91.4085910000000	88.4115880000000	76.4235760000000	87.4125870000000	53.4465530000000	66.4335660000000	118.381620000000
156.421540000000	172.283770000000	189.553460000000	61.5136660000000	79.7615500000000	123.019070000000	111.980550000000	76.9281430000000	90	117	155	82	106	108	183	113	12106.5200000000	25472.8550000000	33699.7270000000	1266.77590000000	3083.51690000000	12390.9440000000	10994.8320000000	2680.25660000000	126.186790000000	124.369300000000	150.043080000000	161.271400000000	139.309740000000	108.178380000000	159.100980000000	215.796970000000	76.4235760000000	73.4265730000000	100.399600000000	123.376620000000	96.4035960000000	54.4455540000000	105.394610000000	198.301700000000
156.826520000000	173.706400000000	190.234810000000	61.7976980000000	85.2752140000000	121.653270000000	114.378500000000	80.1546160000000	92	116	158	88	108	108	188	118	12146.5670000000	26034.3190000000	33970.6910000000	1308.13750000000	3988.93550000000	12092.3290000000	11559.5810000000	3179.55860000000	151.935410000000	133.458050000000	152.051360000000	132.273190000000	93.0174810000000	112.439600000000	115.161480000000	140.409990000000	98.4015980000000	80.4195800000000	102.397600000000	94.4055940000000	54.4455540000000	58.4415580000000	71.4285710000000	114.385610000000
157.327610000000	175.404910000000	190.752580000000	62.5681020000000	85.9441860000000	122.563340000000	118.883390000000	81.0936990000000	96	116	163	90	108	110	192	130	12422.8680000000	26564.7670000000	34188.9690000000	1373.03250000000	4056.48970000000	12203.2920000000	12551.8140000000	3358.33760000000	115.087790000000	131.563570000000	144.705260000000	139.758610000000	127.174320000000	109.783970000000	130.174350000000	161.946510000000	77.4225770000000	76.4235760000000	92.4075920000000	107.392610000000	68.4315680000000	61.4385610000000	82.4175820000000	112.387610000000
158.173810000000	173.555240000000	191.628770000000	62.9160850000000	86.3013050000000	123.632080000000	120.754840000000	81.7924270000000	94	116	164	94	108	113	199	134	12417.0080000000	26026.1470000000	34489.9950000000	1419.07540000000	4121.80850000000	12482.1170000000	13043.8810000000	3489.57580000000	117.004920000000	133.535150000000	146.593240000000	177.166390000000	65.6555060000000	127.747160000000	204.165030000000	167.934200000000	71.4285710000000	78.4215780000000	91.4085910000000	159.340660000000	52.4475520000000	76.4235760000000	173.326670000000	119.380620000000
158.467810000000	174.317680000000	191.778520000000	63.1379750000000	88.4451190000000	131.195250000000	125.232890000000	83.9588010000000	96	123	162	102	114	113	204	142	12762.8130000000	26273.6060000000	34525.4260000000	1453.22680000000	4566.69310000000	14471.1170000000	14192.6430000000	3809.78480000000	136.920180000000	132.686870000000	140.015790000000	149.835810000000	135.624900000000	116.433220000000	119.398540000000	151.829630000000	91.4085910000000	80.4195800000000	85.4145850000000	118.381620000000	75.4245750000000	59.4405590000000	73.4265730000000	113.386610000000
160.827280000000	174.994500000000	193.427470000000	63.3897550000000	88.6319920000000	133.414030000000	127.815220000000	85.1339850000000	100	128	168	104	112	114	210	154	13296.4810000000	26490.3950000000	35210.8470000000	1481.37960000000	4611.39750000000	15048.6310000000	14732.3870000000	4050.25270000000	150.632410000000	129.759260000000	134.359560000000	176.755130000000	118.851460000000	89.2081230000000	103.456710000000	163.744200000000	95.4045950000000	79.4205790000000	81.4185810000000	147.352650000000	70.4295700000000	55.4445550000000	59.4405590000000	118.381620000000
164.122970000000	179.839300000000	194.610840000000	63.3397750000000	98.7548750000000	138.910650000000	130.458730000000	86.4402300000000	103	125	172	112	116	113	212	160	14833.7380000000	28107.9440000000	35617.4670000000	1533.16420000000	6536.70760000000	16481.6880000000	15498.4530000000	4296.31850000000	69.6147770000000	109.807730000000	111.819240000000	146.159000000000	69.7228660000000	118.580220000000	131.541760000000	165.911940000000	53.4465530000000	68.4315680000000	67.4325670000000	98.4015980000000	55.4445550000000	68.4315680000000	101.398600000000	128.371630000000
166.398340000000	182.003910000000	195.427890000000	63.7796360000000	99.0202550000000	139.818800000000	134.309290000000	87.9883840000000	105	126	170	112	114	114	209	159	15414.1210000000	28960.8930000000	36039.1890000000	1571.47360000000	6479.65380000000	16724.0900000000	16508.0070000000	4505.13540000000	156.084530000000	96.2675120000000	105.372660000000	151.809460000000	109.694520000000	121.269940000000	139.617080000000	158.133290000000	103.396600000000	64.4355640000000	73.4265730000000	107.392610000000	61.4385610000000	65.4345650000000	80.4195800000000	123.376620000000
165.839020000000	127.246190000000	99.2316340000000	64.3055390000000	97.8563020000000	139.683660000000	134.077050000000	88.4532810000000	104	130	174	116	114	115	200	160	15181.8360000000	11981.0280000000	7459.73400000000	1623.44170000000	6363.35130000000	16647.6700000000	16439.4700000000	4607.95790000000	121.055370000000	113.272480000000	135.219900000000	148.489420000000	123.086060000000	110.678890000000	135.600940000000	178.068850000000	82.4175820000000	63.4365630000000	82.4175820000000	110.389610000000	67.4325670000000	64.4355640000000	77.4225770000000	148.351650000000
165.511290000000	124.884310000000	98.3762460000000	64.3225530000000	99.0657240000000	137.959120000000	134.402360000000	88.3396020000000	98	129	174	110	114	119	202	159	14990.7860000000	11498.0350000000	7397.36710000000	1595.37360000000	6600.65540000000	16338.3630000000	16508.0340000000	4582.72160000000	105.507110000000	116.236770000000	114.047600000000	163.392980000000	118.843540000000	106.927300000000	130.986230000000	167.882920000000	72.4275720000000	65.4345650000000	71.4285710000000	134.365630000000	67.4325670000000	58.4415580000000	86.4135860000000	127.372630000000
163.965190000000	124.717210000000	97.3295380000000	64.0835910000000	98.7665600000000	137.173590000000	132.657510000000	87.8772770000000	94	126	170	102	110	118	201	153	14587.2890000000	11377.0570000000	7279.18430000000	1555.93100000000	6539.01430000000	16065.0220000000	16066.6680000000	4522.20510000000	131.084470000000	164.174350000000	121.245030000000	163.525790000000	133.091440000000	114.152830000000	163.640180000000	132.829160000000	81.4185810000000	106.393610000000	84.4155840000000	112.387610000000	70.4295700000000	64.4355640000000	113.386610000000	95.4045950000000
160.856040000000	123.256730000000	96.0759630000000	63.7449820000000	98.3025320000000	135.102590000000	130.611350000000	87.6502140000000	90	127	162	100	102	120	198	150	13624.4070000000	11055.1680000000	6976.30820000000	1512.26140000000	6451.73690000000	15465.0810000000	15522.7270000000	4469.73810000000	134.804920000000	151.053230000000	153.499730000000	161.643380000000	129.908550000000	124.077950000000	147.932310000000	176.245330000000	85.4145850000000	100.399600000000	93.4065930000000	111.388610000000	75.4245750000000	68.4315680000000	93.4065930000000	135.364640000000
158.698700000000	121.666640000000	95.0004460000000	62.9303370000000	96.6828610000000	131.706600000000	129.491080000000	85.5932670000000	84	118	148	98	97	119	198	143	12810.4150000000	10623.3660000000	6764.16910000000	1432.17350000000	6208.02350000000	14587.9190000000	15249.7790000000	4130.69350000000	130.663890000000	123.810050000000	123.382670000000	160.064950000000	110.310550000000	119.097810000000	142.648340000000	147.758720000000	85.4145850000000	66.4335660000000	69.4305690000000	110.389610000000	66.4335660000000	67.4325670000000	81.4185810000000	99.4005990000000
156.660700000000	119.365180000000	93.7043260000000	62.7338820000000	96.6022970000000	130.225560000000	129.447000000000	85.0152030000000	77	114	143	92	94	119	194	137	12233.7460000000	10032.2050000000	6527.29800000000	1392.94400000000	6122.06230000000	14260.1160000000	15154.9700000000	4016.04940000000	161.419780000000	99.9536750000000	143.464670000000	174.763680000000	132.626950000000	123.655220000000	144.645260000000	175.394820000000	103.396600000000	58.4415580000000	85.4145850000000	132.367630000000	75.4245750000000	68.4315680000000	90.4095900000000	133.366630000000
155.200850000000	117.813860000000	92.2276620000000	62.2204870000000	95.9345780000000	130.240090000000	128.468560000000	84.4274830000000	70	110	138	86	86	120	189	124	11715.7940000000	9673.08390000000	6274.27490000000	1320.98120000000	5949.09130000000	14240.9100000000	14901.7100000000	3857.37520000000	127.974900000000	142.677420000000	139.839070000000	154.686880000000	135.935150000000	131.416400000000	169.187760000000	178.725810000000	84.4155840000000	85.4145850000000	85.4145850000000	110.389610000000	76.4235760000000	70.4295700000000	132.367630000000	133.366630000000
151.476070000000	116.337150000000	90.4395340000000	61.7262900000000	95.2573210000000	126.913350000000	125.966960000000	83.4601630000000	61	104	128	79	83	118	182	116	10648.0980000000	9314.20190000000	5852.23300000000	1262.10900000000	5857.06340000000	13412.8260000000	14298.2810000000	3662.73490000000	118.330480000000	132.251160000000	94.2627160000000	168.914920000000	145.162310000000	109.560760000000	111.926440000000	178.920340000000	66.4335660000000	79.4205790000000	54.4455540000000	134.365630000000	86.4135860000000	58.4415580000000	55.4445550000000	151.348650000000
145.124980000000	115.037500000000	87.9446030000000	61.2896350000000	94.6670890000000	126.112390000000	123.966920000000	82.0156100000000	56	96	121	74	75	120	182	112	9070.67080000000	8971.71040000000	5467.95160000000	1211.53400000000	5697.15790000000	13141.0620000000	13774.2350000000	3497.56580000000	128.186230000000	74.4663180000000	97.9401560000000	167.517030000000	153.093110000000	126.897480000000	160.744980000000	166.010890000000	82.4175820000000	53.4465530000000	59.4405590000000	122.377620000000	93.4065930000000	65.4345650000000	108.391610000000	122.377620000000
141.086600000000	112.505030000000	84.9841450000000	59.9505750000000	93.2954680000000	123.290740000000	119.958990000000	81.2235440000000	50	94	114	64	70	123	178	100	7713.97350000000	8352.11170000000	4964.17720000000	1054.89130000000	5521.30840000000	12411.6800000000	12739.7510000000	3307.71770000000	153.655550000000	133.933440000000	150.569610000000	175.498720000000	138.465960000000	161.918780000000	145.600470000000	180.169290000000	97.4025970000000	78.4215780000000	103.396600000000	130.369630000000	80.4195800000000	109.390610000000	92.4075920000000	143.356640000000
138.831680000000	110.026480000000	84.4527660000000	59.8612820000000	93.0498880000000	121.439550000000	114.996830000000	79.7437920000000	44	88	112	62	66	125	173	93	7054.00010000000	7866.30160000000	4852.65800000000	1012.52520000000	5436.35480000000	12017.2280000000	11581.5970000000	3102.44850000000	145.026490000000	132.762180000000	100.242780000000	174.719260000000	137.531090000000	140.664720000000	153.242320000000	185.084150000000	90.4095900000000	79.4205790000000	66.4335660000000	132.367630000000	80.4195800000000	75.4245750000000	115.384620000000	152.347650000000
137.957010000000	108.890980000000	83.0033240000000	58.5787350000000	92.6259740000000	119.412650000000	112.795030000000	78.9435610000000	40	82	104	54	59	124	168	86	6634.57200000000	7670.26930000000	4642.43570000000	871.231700000000	5331.99570000000	11524.5080000000	11081.8740000000	2981.70790000000	142.805000000000	124.566330000000	125.131850000000	181.034610000000	138.113380000000	82.6066360000000	149.439830000000	187.201930000000	92.4075920000000	68.4315680000000	81.4185810000000	143.356640000000	80.4195800000000	54.4455540000000	96.4035960000000	148.351650000000
133.476150000000	104.472830000000	78.5614620000000	58.1524610000000	91.3405620000000	109.855430000000	107.760020000000	77.1628330000000	32	77	97	50	52	125	164	79	5414.11020000000	6747.22960000000	3931.58290000000	819.566040000000	5018.28280000000	9340.04790000000	9936.87440000000	2673.85570000000	145.086640000000	132.421680000000	125.601310000000	178.797930000000	126.735480000000	135.328620000000	146.640680000000	198.601240000000	95.4045950000000	61.4385610000000	70.4295700000000	141.358640000000	71.4285710000000	81.4185810000000	79.4205790000000	172.327670000000
132.434500000000	100.904900000000	77.0206730000000	57.5843700000000	85.0643740000000	108.350500000000	103.909190000000	73.5144250000000	28	72	90	42	48	125	162	70	5156.87370000000	5992.37750000000	3659.40710000000	754.389580000000	3994.81760000000	9014.12780000000	9206.64010000000	2124.99010000000	149.627880000000	140.132160000000	87.8005570000000	167.370860000000	143.435640000000	142.897520000000	97.5662220000000	187.716190000000	94.4055940000000	87.4125870000000	62.4375620000000	99.4005990000000	81.4185810000000	72.4275720000000	55.4445550000000	147.352650000000
130.764930000000	97.6963680000000	74.7626720000000	56.6704430000000	84.2162660000000	106.210850000000	98.3370100000000	71.9423370000000	24	66	80	40	42	122	156	58	4759.19820000000	5352.46540000000	3363.22450000000	667.800940000000	3853.07870000000	8563.60790000000	8043.73910000000	1901.29640000000	132.218930000000	102.316120000000	154.082420000000	155.469300000000	144.285600000000	116.764260000000	126.015740000000	182.879360000000	87.4125870000000	58.4415580000000	82.4175820000000	92.4075920000000	91.4085910000000	64.4355640000000	67.4325670000000	145.354650000000
129.741880000000	95.0024720000000	72.4048030000000	55.9783820000000	83.4972640000000	102.896130000000	95.0780100000000	70.9496600000000	22	60	74	34	31	120	144	50	4558.21160000000	4834.94260000000	2960.85390000000	607.233970000000	3687.87990000000	7875.00050000000	7405.02020000000	1745.61610000000	156.316160000000	137.575210000000	150.244110000000	172.630400000000	129.032870000000	104.645780000000	102.039910000000	179.962830000000	92.4075920000000	79.4205790000000	81.4185810000000	128.371630000000	75.4245750000000	55.4445550000000	68.4315680000000	150.349650000000
128.236640000000	92.2941410000000	70.8583430000000	55.5098040000000	79.8997030000000	91.9935260000000	87.7821590000000	67.4677520000000	18	49	68	24	22	122	140	38	3963.51690000000	4299.65920000000	2768.41790000000	534.649450000000	3094.85000000000	5750.29390000000	6083.77040000000	1289.68530000000	121.210010000000	97.1572150000000	120.945580000000	203.324980000000	101.710550000000	82.1622500000000	89.8984370000000	185.500210000000	81.4185810000000	58.4415580000000	73.4265730000000	153.346650000000	62.4375620000000	54.4455540000000	58.4415580000000	150.349650000000
125.210880000000	90.8079800000000	65.4442420000000	54.3843000000000	78.3840130000000	87.8237670000000	83.0136330000000	65.9980500000000	12	40	56	22	16	122	134	24	3376.03480000000	4002.99230000000	2034.31450000000	450.051280000000	2877.63370000000	4880.27500000000	5267.88260000000	1019.49780000000	99.3064100000000	66.2433050000000	103.628630000000	152.333840000000	128.871120000000	67.8957120000000	122.817620000000	186.599020000000	55.4445550000000	53.4465530000000	57.4425570000000	95.4045950000000	73.4265730000000	51.4485510000000	62.4375620000000	160.339660000000
117.911630000000	79.9961740000000	61.4128950000000	53.9064670000000	64.6805090000000	76.7173810000000	76.7099970000000	63.6076560000000	7	35	46	10	9	124	133	14	1440.78180000000	2260.13240000000	1505.25220000000	355.979730000000	926.419030000000	3195.21700000000	4266.74210000000	691.790310000000	155.263030000000	62.6333400000000	125.872030000000	159.533420000000	105.510790000000	79.8394540000000	88.7167180000000	167.949930000000	95.4045950000000	51.4485510000000	65.4345650000000	95.4045950000000	54.4455540000000	56.4435560000000	55.4445550000000	158.341660000000
113.555650000000	73.0193550000000	56.5164260000000	52.8985140000000	62.7427010000000	72.9111860000000	68.0084570000000	60.7924520000000	1	28	40	6	6	124	138	8	600.680610000000	1123.69320000000	910.533990000000	264.218570000000	663.750860000000	2584.82780000000	3019.44110000000	394.158510000000	232.967630000000	131.218190000000	129.606260000000	168.579540000000	122.224010000000	112.633710000000	72.6943210000000	160.199440000000	225.274730000000	63.4365630000000	72.4275720000000	133.366630000000	57.4425570000000	55.4445550000000	54.4455540000000	102.397600000000
112.912690000000	72.7535340000000	55.4373290000000	52.4248870000000	61.8149530000000	72.6773300000000	66.7868970000000	60.7903650000000	0	22	32	2	2	125	138	4	449.630600000000	1041.00510000000	796.027020000000	206.154360000000	506.712970000000	2515.45590000000	2800.02730000000	328.523010000000	108.437490000000	148.450930000000	94.1654110000000	177.996720000000	110.640740000000	117.435970000000	83.6738550000000	201.433580000000	51.4485510000000	99.4005990000000	56.4435560000000	110.389610000000	61.4385610000000	69.4305690000000	54.4455540000000	163.336660000000
111.607910000000	71.4105310000000	55.0922450000000	51.7041110000000	58.6265470000000	71.9609570000000	63.4647660000000	59.0629760000000	0	18	30	0	0	124	133	2	223.364580000000	898.064060000000	734.409650000000	153.972420000000	182.178960000000	2431.85560000000	2435.50060000000	197.600170000000	166.532190000000	94.5109010000000	82.0220700000000	186.053020000000	154.390700000000	99.7762160000000	122.251370000000	186.804150000000	118.381620000000	54.4455540000000	53.4465530000000	145.354650000000	70.4295700000000	54.4455540000000	57.4425570000000	159.340660000000
111.649180000000	70.7313950000000	54.9267550000000	51.7878490000000	58.6524740000000	71.8731420000000	63.4245180000000	59.2371590000000	0	16	30	0	0	126	130	2	212.946330000000	841.679870000000	736.978830000000	153.535340000000	174.874890000000	2398.80840000000	2422.85690000000	196.189220000000	171.585750000000	96.9661350000000	95.5559330000000	195.269490000000	159.943930000000	115.520940000000	80.5166110000000	209.403370000000	110.389610000000	58.4415580000000	54.4455540000000	172.327670000000	88.4115880000000	59.4405590000000	54.4455540000000	189.310690000000
111.515460000000	70.1483860000000	54.8938410000000	51.7867380000000	58.5516680000000	71.6975770000000	63.5055790000000	59.0098190000000	0	10	28	0	0	124	130	0	197.088900000000	750.533760000000	740.390440000000	151.619050000000	168.237700000000	2361.98020000000	2408.21970000000	175.703690000000	208.552850000000	100.821280000000	92.7343830000000	202.376850000000	187.292540000000	82.1315520000000	77.1407420000000	165.660350000000	192.307690000000	54.4455540000000	54.4455540000000	166.333670000000	142.357640000000	54.4455540000000	54.4455540000000	99.4005990000000
111.764900000000	69.5314350000000	54.7860570000000	51.7492070000000	58.6911330000000	71.5516490000000	63.0745480000000	58.9689370000000	0	8	28	0	0	126	128	0	197.405300000000	687.120710000000	742.224460000000	147.922910000000	168.729630000000	2362.71980000000	2380.55000000000	176.299400000000	219.891760000000	104.665340000000	73.2065160000000	182.606600000000	181.517400000000	86.6706940000000	92.6682070000000	175.949590000000	216.283720000000	54.4455540000000	53.4465530000000	134.365630000000	114.385610000000	54.4455540000000	54.4455540000000	107.392610000000
111.997830000000	68.9031640000000	54.8543960000000	51.7680230000000	58.5315050000000	71.4914180000000	63.0447870000000	58.8399870000000	0	6	28	0	0	126	127	0	196.331460000000	627.445380000000	757.251610000000	150.065110000000	164.802940000000	2352.22330000000	2391.47290000000	171.830490000000	184.949410000000	110.393230000000	134.755930000000	229.065070000000	226.190630000000	84.9319260000000	98.7711790000000	194.481830000000	152.347650000000	54.4455540000000	57.4425570000000	195.304700000000	247.252750000000	54.4455540000000	54.4455540000000	149.350650000000
111.875070000000	69.0270070000000	55.0256710000000	51.5791580000000	58.5059310000000	71.6218140000000	63.1285720000000	58.8217080000000	0	4	28	0	0	124	128	0	198.194520000000	622.332480000000	777.949330000000	144.382330000000	164.279970000000	2350.02900000000	2386.76130000000	170.004820000000	193.556850000000	96.9789160000000	91.9860920000000	164.944450000000	152.548280000000	76.8759500000000	73.8235210000000	185.884270000000	150.349650000000	54.4455540000000	54.4455540000000	68.4315680000000	126.373630000000	53.4465530000000	53.4465530000000	120.379620000000
111.712120000000	68.8637950000000	55.2803730000000	51.7056280000000	58.4446320000000	71.4660250000000	62.9101060000000	58.6955670000000	0	4	34	0	0	125	129	0	196.703130000000	624.569670000000	792.062730000000	143.415680000000	162.711110000000	2346.30560000000	2390.23640000000	168.154740000000	179.920090000000	110.793720000000	115.840680000000	188.510700000000	182.881070000000	75.9640840000000	90.1204770000000	174.011530000000	148.351650000000	54.4455540000000	54.4455540000000	151.348650000000	127.372630000000	54.4455540000000	54.4455540000000	118.381620000000
111.674010000000	68.9217620000000	55.2551260000000	51.5387760000000	58.3845380000000	71.4689120000000	62.8250760000000	58.9177690000000	0	4	38	0	0	126	126	0	197.608890000000	626.742320000000	796.361250000000	142.111810000000	156.119170000000	2330.72560000000	2378.12690000000	169.502930000000	191.198830000000	155.952740000000	142.213750000000	183.366920000000	219.464270000000	104.118320000000	82.9564800000000	201.760250000000	128.371630000000	70.4295700000000	60.4395600000000	146.353650000000	219.280720000000	55.4445550000000	54.4455540000000	160.339660000000
111.598020000000	68.8152480000000	55.4241840000000	51.3327690000000	58.4725120000000	71.6680960000000	63.1471790000000	58.9787280000000	0	0	40	0	0	124	126	0	202.583960000000	598.722260000000	801.963340000000	144.610070000000	151.743230000000	2341.01070000000	2408.89690000000	169.314050000000	193.833510000000	122.806540000000	112.011050000000	209.535700000000	186.786810000000	68.1224350000000	71.2073110000000	181.376490000000	127.372630000000	55.4445550000000	54.4455540000000	195.304700000000	152.347650000000	54.4455540000000	53.4465530000000	132.367630000000
111.410430000000	68.7773260000000	55.6271950000000	51.2613730000000	58.4657210000000	71.7264420000000	62.9156270000000	58.9214470000000	0	0	36	0	0	124	130	0	201.028760000000	593.750110000000	806.311670000000	149.605630000000	150.733550000000	2359.54510000000	2411.34000000000	171.134170000000	220.330050000000	93.0749920000000	113.732640000000	222.158880000000	188.569350000000	84.4918680000000	73.6196030000000	185.349770000000	202.297700000000	54.4455540000000	54.4455540000000	193.306690000000	149.350650000000	53.4465530000000	53.4465530000000	145.354650000000
111.221350000000	69.1695440000000	55.5880410000000	51.2392850000000	58.4566650000000	71.6201810000000	62.9581480000000	58.8889290000000	0	0	38	0	0	124	130	0	201.227880000000	597.089820000000	805.116770000000	148.932940000000	144.710870000000	2327.25040000000	2411.04620000000	168.710570000000	181.644830000000	110.790320000000	99.3333750000000	196.962990000000	202.959660000000	98.9219880000000	101.367940000000	170.237060000000	131.368630000000	54.4455540000000	54.4455540000000	154.345650000000	180.319680000000	54.4455540000000	54.4455540000000	103.396600000000
111.127930000000	69.1935230000000	55.4403860000000	51.3034370000000	58.3272540000000	71.4710230000000	63.1372210000000	58.8780950000000	0	0	36	0	2	124	134	0	198.981760000000	601.267050000000	798.632230000000	150.909520000000	149.539060000000	2320.47470000000	2414.90700000000	170.790690000000	221.708130000000	127.943570000000	103.851690000000	194.230290000000	207.848140000000	89.3645090000000	84.5339410000000	204.249180000000	224.275720000000	55.4445550000000	54.4455540000000	160.339660000000	171.328670000000	54.4455540000000	54.4455540000000	150.349650000000
111.124400000000	69.3442520000000	55.5812210000000	51.4335730000000	58.3240290000000	71.2575770000000	63.1318610000000	58.7620030000000	0	0	34	0	2	124	132	0	196.743600000000	600.139710000000	798.579810000000	152.987610000000	150.454480000000	2321.70240000000	2426.09920000000	174.010910000000	220.204400000000	108.478530000000	71.7008560000000	214.228120000000	207.432040000000	70.4790420000000	64.8727810000000	211.750690000000	197.302700000000	54.4455540000000	53.4465530000000	200.299700000000	154.345650000000	53.4465530000000	53.4465530000000	197.302700000000
111.057490000000	69.4032210000000	55.5323050000000	51.4474550000000	58.3616930000000	71.4359060000000	63.1720270000000	58.8291700000000	0	0	35	0	2	124	134	0	197.266960000000	594.357670000000	809.911820000000	152.531550000000	154.091940000000	2313.96090000000	2430.05280000000	171.523580000000	240.130650000000	102.019520000000	107.619150000000	227.965860000000	243.931060000000	101.933520000000	110.894810000000	209.681810000000	222.277720000000	54.4455540000000	54.4455540000000	225.274730000000	288.211790000000	54.4455540000000	54.4455540000000	184.315680000000
110.993650000000	69.3103640000000	55.5858850000000	51.5545600000000	58.2577000000000	71.4799560000000	63.1677130000000	58.7083900000000	0	0	36	0	2	126	134	0	193.277080000000	589.444330000000	809.383660000000	151.294590000000	154.749460000000	2323.84380000000	2429.28020000000	170.515700000000	203.862700000000	133.818930000000	101.082660000000	191.954160000000	215.383100000000	97.7479380000000	75.1480290000000	194.153090000000	188.311690000000	63.4365630000000	54.4455540000000	143.356640000000	220.279720000000	54.4455540000000	54.4455540000000	134.365630000000
111.053250000000	69.3508110000000	55.6082940000000	51.5417100000000	58.2664020000000	71.3217090000000	62.9559760000000	58.5618990000000	0	0	38	0	2	126	134	0	190.910530000000	601.543280000000	812.232220000000	151.578510000000	157.160480000000	2332.63160000000	2432.32710000000	167.687750000000	219.463640000000	118.451170000000	98.7743780000000	199.536370000000	233.161350000000	64.6903790000000	64.4698520000000	187.361730000000	221.278720000000	54.4455540000000	54.4455540000000	171.328670000000	232.267730000000	53.4465530000000	53.4465530000000	139.360640000000
111.348970000000	69.2935820000000	55.3306960000000	51.7021980000000	58.2769040000000	71.4825530000000	62.9903050000000	58.5297100000000	0	0	40	0	2	124	134	0	186.305950000000	597.521950000000	804.535770000000	153.011490000000	158.061800000000	2323.01330000000	2422.06880000000	171.997720000000	167.966280000000	88.6876170000000	111.242500000000	218.387060000000	211.074210000000	94.9121430000000	102.399660000000	196.244910000000	151.348650000000	54.4455540000000	54.4455540000000	207.292710000000	186.313690000000	54.4455540000000	54.4455540000000	163.336660000000
111.561820000000	69.1253500000000	55.3763680000000	51.7465940000000	58.1346790000000	71.2996840000000	63.0677980000000	58.6138060000000	0	0	40	0	2	122	132	0	184.908270000000	590.984170000000	806.536330000000	152.013450000000	157.489470000000	2314.70600000000	2428.71950000000	173.979950000000	225.281530000000	108.801200000000	130.635200000000	236.696520000000	193.983490000000	98.2135250000000	110.397960000000	237.304140000000	243.256740000000	54.4455540000000	56.4435560000000	210.289710000000	162.337660000000	54.4455540000000	55.4445550000000	219.280720000000
111.709140000000	69.0912860000000	55.4867460000000	51.8350650000000	58.1510790000000	71.0965450000000	63.0080420000000	58.5311340000000	0	0	38	2	2	124	126	0	183.292820000000	586.648740000000	804.661800000000	151.494170000000	157.681160000000	2295.00750000000	2434.37840000000	172.583860000000	226.732240000000	108.949620000000	106.222060000000	229.809810000000	186.503380000000	73.8186480000000	91.9889240000000	192.569760000000	221.278720000000	54.4455540000000	54.4455540000000	198.301700000000	138.361640000000	54.4455540000000	54.4455540000000	138.361640000000
111.771720000000	69.1153730000000	55.2458450000000	51.7018390000000	58.2090140000000	71.2032420000000	63.0322290000000	58.2364250000000	0	0	40	2	2	124	126	0	183.041400000000	580.451110000000	803.748980000000	149.185470000000	158.317750000000	2287.64260000000	2430.61960000000	168.347100000000	214.594770000000	88.0979950000000	83.3159420000000	205.255120000000	198.597780000000	75.6637250000000	93.7024620000000	185.147610000000	184.315680000000	54.4455540000000	54.4455540000000	180.319680000000	151.348650000000	54.4455540000000	54.4455540000000	129.370630000000
111.663200000000	69.0374960000000	55.4472980000000	51.7835690000000	58.3469490000000	70.9652930000000	63.0437050000000	58.5913050000000	0	0	40	2	2	128	126	0	183.485530000000	584.102270000000	803.620860000000	146.825720000000	157.962890000000	2256.49790000000	2423.53540000000	169.184610000000	259.493920000000	138.077420000000	121.427730000000	187.349170000000	167.780120000000	108.629220000000	94.1486010000000	190.541530000000	254.245750000000	54.4455540000000	55.4445550000000	170.329670000000	132.367630000000	55.4445550000000	54.4455540000000	141.358640000000
111.579990000000	69.1537920000000	55.5540350000000	51.6960520000000	58.4062970000000	70.7565770000000	62.9878900000000	58.5992210000000	0	0	36	2	2	129	128	0	184.779150000000	587.723440000000	798.165360000000	145.463060000000	158.437320000000	2258.67040000000	2439.97020000000	170.982090000000	209.869180000000	103.443620000000	84.8540320000000	185.486130000000	190.275840000000	74.9039220000000	105.655930000000	221.516840000000	173.326670000000	54.4455540000000	54.4455540000000	143.356640000000	146.353650000000	54.4455540000000	54.4455540000000	224.275720000000
111.387640000000	69.0862590000000	55.3651970000000	51.5596770000000	58.2477400000000	70.9186450000000	63.2673250000000	58.5618690000000	0	0	38	2	2	130	128	0	184.502180000000	583.762260000000	790.110940000000	143.512600000000	160.573510000000	2249.18760000000	2446.79670000000	170.599880000000	216.184230000000	96.1574880000000	71.7721030000000	203.791150000000	243.931260000000	84.1237480000000	70.7935990000000	172.513820000000	204.295700000000	54.4455540000000	53.4465530000000	173.326670000000	256.243760000000	53.4465530000000	54.4455540000000	108.391610000000
111.206100000000	68.8628870000000	55.5569940000000	51.6240550000000	57.9710010000000	70.6785560000000	63.1967910000000	58.4857040000000	0	0	40	2	2	130	130	0	191.819260000000	591.702080000000	800.568640000000	143.811820000000	158.487370000000	2237.53340000000	2441.37550000000	165.350370000000	207.720930000000	119.967120000000	136.368240000000	225.839590000000	241.963550000000	81.8143060000000	111.323360000000	185.377200000000	192.307690000000	55.4445550000000	61.4385610000000	211.288710000000	236.263740000000	54.4455540000000	55.4445550000000	122.377620000000
111.291610000000	68.9511150000000	55.4587430000000	51.6489020000000	57.9247960000000	70.7101790000000	63.4213450000000	58.4717270000000	0	0	40	2	2	131	130	0	186.266450000000	587.674840000000	788.578180000000	142.578750000000	157.826790000000	2240.71540000000	2466.98090000000	166.194200000000	202.034870000000	121.079000000000	152.972720000000	193.347290000000	180.695380000000	68.7281720000000	67.1547100000000	187.716420000000	191.308690000000	57.4425570000000	56.4435560000000	165.334670000000	158.341660000000	53.4465530000000	53.4465530000000	130.369630000000
111.209470000000	68.9833770000000	55.1004120000000	51.5286020000000	58.0464580000000	71.0817030000000	63.5179540000000	58.4908060000000	0	2	46	2	2	136	128	0	185.697080000000	581.153090000000	784.113280000000	141.254630000000	158.478400000000	2245.21210000000	2457.81500000000	169.499740000000	261.010160000000	113.904310000000	81.9373530000000	204.743840000000	178.844780000000	88.3247680000000	64.7289690000000	228.603610000000	245.254750000000	54.4455540000000	53.4465530000000	183.316680000000	114.385610000000	53.4465530000000	53.4465530000000	222.277720000000
111.230640000000	68.7251250000000	55.0750810000000	51.5018590000000	58.0211710000000	70.7868200000000	63.2992290000000	58.3251930000000	0	2	42	2	2	136	130	0	182.698260000000	564.235510000000	778.267960000000	140.490710000000	157.255380000000	2242.24040000000	2431.79890000000	168.094760000000	217.044260000000	95.3238420000000	86.8637490000000	228.558740000000	188.638670000000	108.855540000000	102.839760000000	191.622220000000	199.300700000000	54.4455540000000	54.4455540000000	234.265730000000	144.355640000000	54.4455540000000	54.4455540000000	151.348650000000
111.410640000000	68.7370230000000	55.0723350000000	51.6921560000000	58.0629190000000	70.7181380000000	63.4636230000000	58.0557880000000	0	2	42	2	2	137	131	0	188.369190000000	561.495430000000	780.202870000000	143.735470000000	158.995870000000	2244.62220000000	2458.10190000000	168.428360000000	206.148320000000	107.007390000000	84.7589840000000	177.613190000000	194.405180000000	74.5705920000000	66.2085150000000	179.078960000000	170.329670000000	55.4445550000000	54.4455540000000	115.384620000000	161.338660000000	54.4455540000000	53.4465530000000	118.381620000000
111.591270000000	68.7668270000000	54.9454680000000	51.8253950000000	57.9627620000000	71.0010150000000	63.7169040000000	58.1263770000000	0	2	43	2	2	140	130	0	187.102750000000	553.654410000000	782.427600000000	144.416490000000	160.093810000000	2254.71000000000	2453.53960000000	168.721020000000	210.427100000000	132.074180000000	105.124290000000	212.863790000000	195.531770000000	67.6483510000000	85.0849940000000	226.628380000000	180.319680000000	54.4455540000000	54.4455540000000	203.296700000000	164.335660000000	53.4465530000000	54.4455540000000	236.263740000000
111.652020000000	68.4918740000000	55.1066500000000	51.8860710000000	57.8797990000000	70.6071120000000	63.6470680000000	58.1364030000000	0	2	44	2	2	139	127	0	186.248710000000	557.146560000000	777.891660000000	141.469210000000	160.829120000000	2247.33220000000	2464.40040000000	170.636400000000	214.777230000000	117.950400000000	98.5053400000000	239.110670000000	195.844140000000	76.7505000000000	110.501790000000	215.887710000000	183.316680000000	54.4455540000000	54.4455540000000	231.268730000000	165.334670000000	54.4455540000000	54.4455540000000	211.288710000000
111.531560000000	68.3475150000000	54.9619830000000	52.0071250000000	57.8418110000000	70.7851960000000	63.6835680000000	58.1351390000000	0	2	42	2	2	138	130	0	187.159950000000	550.734170000000	771.556540000000	142.120590000000	160.265410000000	2255.70450000000	2459.18520000000	171.776480000000	215.326920000000	147.323000000000	120.431640000000	205.656790000000	210.813810000000	109.836900000000	104.092130000000	214.841880000000	187.312690000000	71.4285710000000	55.4445550000000	178.321680000000	190.309690000000	55.4445550000000	54.4455540000000	184.315680000000
111.549200000000	68.4065100000000	54.8612680000000	51.9686600000000	57.8749090000000	71.0928470000000	63.9365290000000	58.1362400000000	0	2	42	2	0	144	128	0	185.855060000000	551.768200000000	776.220450000000	144.417040000000	156.535720000000	2268.86150000000	2467.78070000000	171.266350000000	208.410820000000	98.6644320000000	78.0296180000000	237.504270000000	178.328160000000	79.9522570000000	61.6360310000000	202.586390000000	180.319680000000	54.4455540000000	54.4455540000000	238.261740000000	123.376620000000	53.4465530000000	53.4465530000000	154.345650000000
111.561840000000	68.2343510000000	54.9871690000000	52.0805860000000	57.8882730000000	70.7352570000000	63.6518240000000	58.0375380000000	0	2	48	2	0	145	127	0	185.126320000000	549.197000000000	780.321610000000	142.015810000000	155.631020000000	2263.27470000000	2464.85850000000	169.416980000000	225.751560000000	97.1460730000000	83.1194680000000	209.589540000000	203.258040000000	73.1608340000000	81.4206290000000	221.742880000000	214.285710000000	54.4455540000000	54.4455540000000	206.293710000000	186.313690000000	54.4455540000000	54.4455540000000	192.307690000000
111.743730000000	68.3770050000000	54.9012250000000	52.0496790000000	57.7292830000000	70.9155350000000	63.7705950000000	57.9638890000000	0	2	46	2	0	144	126	0	193.531130000000	544.827380000000	780.253100000000	142.808570000000	153.021690000000	2258.00300000000	2462.80650000000	171.219900000000	177.947020000000	127.806300000000	107.239150000000	247.474830000000	197.858420000000	110.613520000000	103.202390000000	194.383140000000	126.373630000000	61.4385610000000	54.4455540000000	264.235760000000	151.348650000000	55.4445550000000	54.4455540000000	177.322680000000
111.809290000000	68.5455550000000	54.9162480000000	52.0436910000000	57.9294140000000	70.9566660000000	64.2714260000000	58.1006300000000	0	2	46	2	0	144	128	0	194.382200000000	549.333760000000	788.680770000000	143.805930000000	153.252510000000	2256.57860000000	2490.61050000000	171.724110000000	222.027780000000	97.2926340000000	129.621380000000	215.807910000000	213.076570000000	68.1126450000000	77.3607460000000	193.119310000000	207.292710000000	54.4455540000000	54.4455540000000	193.306690000000	185.314690000000	53.4465530000000	53.4465530000000	160.339660000000
111.727680000000	68.3713310000000	55.1041140000000	52.1485470000000	57.8751930000000	70.7203560000000	64.1318150000000	58.0764230000000	0	2	44	2	0	147	127	0	193.931880000000	546.000800000000	789.000760000000	143.726570000000	151.669530000000	2257.50680000000	2497.05130000000	173.400850000000	279.286250000000	83.6586520000000	92.8727710000000	235.808660000000	206.267330000000	71.6203270000000	78.2448560000000	222.767550000000	314.185810000000	54.4455540000000	54.4455540000000	218.281720000000	181.318680000000	53.4465530000000	54.4455540000000	205.294710000000
111.512020000000	68.4330710000000	54.9587230000000	52.0094520000000	58.0559900000000	70.7310530000000	64.1825280000000	58.0828070000000	0	2	46	2	0	148	125	0	194.066410000000	540.860450000000	788.002150000000	141.670130000000	154.995090000000	2249.32580000000	2493.22540000000	171.150050000000	214.754070000000	176.461790000000	131.914500000000	192.040350000000	243.357810000000	123.512280000000	113.626680000000	177.824120000000	189.310690000000	120.379620000000	54.4455540000000	141.358640000000	275.224780000000	60.4395600000000	55.4445550000000	124.375620000000
111.250150000000	68.5278900000000	55.0084340000000	51.9233480000000	58.3330180000000	70.8689100000000	64.3379130000000	58.1246480000000	0	2	46	2	0	152	124	0	194.963690000000	538.052650000000	788.564330000000	144.366420000000	158.065460000000	2243.93630000000	2494.57720000000	170.567390000000	216.159910000000	127.239980000000	117.914800000000	201.175890000000	199.665850000000	71.8485960000000	74.7895030000000	143.394620000000	211.288710000000	55.4445550000000	54.4455540000000	178.321680000000	156.343660000000	53.4465530000000	53.4465530000000	78.4215780000000
111.204890000000	68.4595440000000	55.1284990000000	51.8996720000000	58.2551930000000	70.7205280000000	64.1723650000000	58.0242280000000	0	2	50	0	0	152	124	0	197.408200000000	545.941980000000	791.418920000000	142.762450000000	161.879910000000	2266.91670000000	2504.83470000000	169.590300000000	208.156330000000	116.300540000000	112.095530000000	196.424750000000	213.460070000000	68.5039670000000	70.2830140000000	155.188990000000	189.310690000000	54.4455540000000	54.4455540000000	174.325670000000	197.302700000000	54.4455540000000	53.4465530000000	65.4345650000000
111.292230000000	68.7982730000000	55.0129590000000	51.8226080000000	58.2882780000000	70.8792580000000	64.0672300000000	58.0615920000000	0	2	50	0	0	152	128	0	200.797770000000	561.041620000000	789.144140000000	140.674850000000	161.974280000000	2267.94170000000	2488.01070000000	171.149700000000	217.414540000000	110.669610000000	106.449450000000	210.958510000000	187.652760000000	114.438420000000	117.198470000000	174.948000000000	196.303700000000	54.4455540000000	54.4455540000000	221.278720000000	141.358640000000	55.4445550000000	55.4445550000000	92.4075920000000
111.232990000000	68.7294830000000	54.9016030000000	51.7033580000000	58.0861480000000	70.9131980000000	64.1464570000000	57.8428650000000	0	2	48	0	0	148	130	0	199.067850000000	551.585610000000	785.643000000000	145.715740000000	164.701440000000	2281.17450000000	2492.62240000000	168.388310000000	207.558220000000	123.529940000000	108.959990000000	175.432910000000	222.134320000000	81.5811400000000	69.1201440000000	166.845470000000	178.321680000000	56.4435560000000	54.4455540000000	140.359640000000	178.321680000000	54.4455540000000	53.4465530000000	93.4065930000000
111.429490000000	68.7363330000000	55.1255810000000	51.8139590000000	58.0677980000000	70.7880130000000	63.9267720000000	57.7929360000000	0	2	52	0	0	148	130	0	198.230480000000	558.854970000000	790.558650000000	145.005800000000	167.915380000000	2297.35290000000	2493.16520000000	167.288260000000	209.543990000000	118.511090000000	77.9652080000000	193.403110000000	175.881240000000	74.3515670000000	82.5266530000000	193.882100000000	181.318680000000	54.4455540000000	53.4465530000000	161.338660000000	115.384620000000	53.4465530000000	53.4465530000000	160.339660000000
111.529890000000	69.1535410000000	55.0924970000000	51.8413690000000	58.0483230000000	70.8927980000000	63.7671490000000	57.8788890000000	0	2	50	0	0	148	132	0	199.108040000000	555.142080000000	794.779610000000	142.991970000000	162.980540000000	2288.16250000000	2471.50210000000	166.059030000000	222.106880000000	97.5369310000000	85.4030690000000	207.104710000000	218.359780000000	90.3117510000000	111.864430000000	198.364080000000	215.284720000000	54.4455540000000	54.4455540000000	189.310690000000	181.318680000000	54.4455540000000	55.4445550000000	183.316680000000
111.573120000000	69.1041640000000	55.2561480000000	51.8722660000000	58.2592520000000	70.7919510000000	63.9032240000000	57.8261420000000	0	2	50	0	0	150	130	0	189.542900000000	548.679320000000	798.704710000000	143.143530000000	165.678330000000	2267.05070000000	2479.59070000000	166.232130000000	220.888240000000	129.215130000000	102.417980000000	192.849900000000	181.547340000000	154.291290000000	96.1768840000000	200.563350000000	213.286710000000	55.4445550000000	54.4455540000000	152.347650000000	140.359640000000	68.4315680000000	54.4455540000000	193.306690000000
111.530990000000	69.0648720000000	55.4552270000000	51.8411330000000	58.3634700000000	70.5338930000000	63.7128420000000	57.7660940000000	0	2	48	0	0	148	130	0	191.833480000000	560.164070000000	811.411980000000	146.203850000000	164.198990000000	2277.04440000000	2485.76020000000	168.536170000000	226.206240000000	110.106420000000	129.446220000000	238.751550000000	192.221850000000	70.8962320000000	60.5847180000000	161.733170000000	225.274730000000	54.4455540000000	57.4425570000000	247.252750000000	161.338660000000	53.4465530000000	53.4465530000000	70.4295700000000
111.584180000000	69.3458280000000	55.3543870000000	51.9276320000000	58.4997450000000	70.5933880000000	64.0468180000000	57.6130110000000	0	0	46	0	0	142	130	0	192.003080000000	563.470250000000	802.120970000000	146.990240000000	162.914350000000	2260.77910000000	2494.25870000000	163.080050000000	189.830960000000	116.251110000000	88.3711160000000	200.755450000000	184.600960000000	81.9254280000000	105.456350000000	198.067030000000	136.363640000000	54.4455540000000	54.4455540000000	190.309690000000	133.366630000000	54.4455540000000	55.4445550000000	134.365630000000
111.543550000000	69.2202670000000	55.4243960000000	51.9109720000000	58.5694660000000	70.4888810000000	64.0368130000000	57.7448480000000	0	0	46	0	0	144	128	0	191.302420000000	573.563970000000	794.684880000000	147.732770000000	165.260910000000	2245.04870000000	2497.66690000000	166.623950000000	244.563750000000	148.435980000000	134.556460000000	196.580530000000	207.740990000000	104.231860000000	106.466230000000	217.314110000000	251.248750000000	58.4415580000000	55.4445550000000	172.327670000000	188.311690000000	54.4455540000000	55.4445550000000	209.290710000000
111.467150000000	69.2785680000000	55.6057840000000	51.8670290000000	58.5410020000000	70.4585560000000	63.7248630000000	57.9127860000000	0	0	42	0	0	146	128	0	181.585570000000	575.749290000000	790.175300000000	145.172170000000	167.856790000000	2264.16750000000	2494.99580000000	164.236040000000	247.583360000000	86.0106480000000	90.0238790000000	198.085390000000	161.220180000000	66.6390850000000	60.7312900000000	184.437040000000	248.251750000000	54.4455540000000	54.4455540000000	142.357640000000	105.394610000000	53.4465530000000	53.4465530000000	115.384620000000
111.320800000000	69.5011540000000	55.3420100000000	51.7297580000000	58.6738700000000	70.5834680000000	63.8973130000000	57.8904000000000	0	0	39	0	0	144	130	0	177.357990000000	580.725750000000	790.873300000000	146.537150000000	166.922090000000	2248.43390000000	2489.02560000000	163.344690000000	195.706090000000	96.9774810000000	92.5335290000000	180.036440000000	194.498710000000	90.8162710000000	104.895240000000	205.026190000000	158.341660000000	54.4455540000000	54.4455540000000	151.348650000000	135.364640000000	54.4455540000000	55.4445550000000	165.334670000000
111.326600000000	69.5577450000000	55.5117380000000	51.8585630000000	58.6125900000000	70.3898320000000	63.6889240000000	57.8421620000000	0	0	36	0	0	142	130	0	172.174220000000	577.886180000000	790.579370000000	145.723590000000	165.235670000000	2241.81460000000	2467.62850000000	158.502550000000	220.498790000000	154.093720000000	137.576450000000	218.228170000000	190.048520000000	112.456600000000	104.018400000000	189.418020000000	205.294710000000	59.4405590000000	61.4385610000000	188.311690000000	141.358640000000	56.4435560000000	55.4445550000000	134.365630000000
111.440810000000	69.6987150000000	55.5246280000000	51.8753050000000	58.6717720000000	70.1898470000000	63.4071190000000	57.8856240000000	0	0	40	0	0	143	127	0	178.619170000000	585.676920000000	800.132770000000	146.981940000000	166.567300000000	2240.56080000000	2475.21250000000	158.203590000000	222.250270000000	114.507820000000	104.070820000000	164.495950000000	194.808740000000	73.7876370000000	63.7457080000000	205.338300000000	212.287710000000	54.4455540000000	54.4455540000000	109.390610000000	157.342660000000	54.4455540000000	53.4465530000000	134.365630000000
111.293340000000	69.7172510000000	55.5478660000000	51.8086700000000	58.8780120000000	70.5468430000000	63.6906550000000	58.1036320000000	0	0	40	0	0	140	122	0	179.793970000000	588.264170000000	810.642730000000	146.072260000000	167.103360000000	2248.87590000000	2469.50200000000	158.171100000000	227.382460000000	91.5939690000000	80.6596500000000	197.381220000000	160.033580000000	58.4924520000000	84.9309870000000	217.202990000000	204.295700000000	54.4455540000000	53.4465530000000	166.333670000000	121.378620000000	53.4465530000000	54.4455540000000	202.297700000000
111.134710000000	69.6579750000000	55.6243670000000	51.6953640000000	58.8136810000000	70.4284610000000	63.6075470000000	58.1720650000000	0	0	36	0	0	142	124	0	178.467400000000	592.945010000000	806.347790000000	150.573690000000	166.253330000000	2251.37870000000	2464.18000000000	156.160460000000	205.419610000000	117.689220000000	132.263700000000	248.475720000000	202.693530000000	112.176900000000	113.076630000000	197.743290000000	167.332670000000	55.4445550000000	57.4425570000000	225.274730000000	159.340660000000	55.4445550000000	55.4445550000000	160.339660000000
111.201630000000	69.8160980000000	55.7054610000000	51.7534770000000	58.8789280000000	70.3124520000000	63.5330810000000	58.0366920000000	0	0	36	0	0	145	125	0	170.233780000000	596.256760000000	800.728840000000	150.230810000000	169.701200000000	2260.23150000000	2473.49440000000	154.668420000000	210.065810000000	97.7516690000000	118.935980000000	227.271700000000	221.768960000000	63.1261020000000	75.8235400000000	154.720330000000	169.330670000000	54.4455540000000	55.4445550000000	219.280720000000	221.278720000000	54.4455540000000	53.4465530000000	87.4125870000000
111.095090000000	69.8739250000000	55.4986980000000	51.5652940000000	58.8307880000000	70.6944410000000	63.6747740000000	58.1937440000000	0	0	36	0	0	142	124	0	167.577420000000	590.372610000000	805.084540000000	150.491980000000	171.837510000000	2278.78670000000	2465.44630000000	154.284830000000	198.964880000000	77.6029430000000	75.6208990000000	205.169570000000	176.671600000000	73.8230180000000	72.1411310000000	206.419340000000	143.356640000000	53.4465530000000	53.4465530000000	182.317680000000	131.368630000000	53.4465530000000	53.4465530000000	167.332670000000
110.940520000000	69.7938780000000	55.5689290000000	51.6255480000000	58.7784250000000	70.4606010000000	63.3147880000000	58.2801120000000	0	0	34	0	0	138	128	0	168.849270000000	601.907260000000	796.200050000000	148.294670000000	170.544450000000	2270.22560000000	2435.71110000000	153.495480000000	205.977430000000	102.382480000000	94.3443930000000	210.854640000000	248.445080000000	114.526470000000	110.560310000000	217.249020000000	172.327670000000	54.4455540000000	54.4455540000000	186.313690000000	257.242760000000	56.4435560000000	55.4445550000000	187.312690000000
111.081220000000	69.8959290000000	55.6621160000000	51.7762000000000	58.7400960000000	70.5601230000000	63.2281390000000	58.2235370000000	0	0	34	0	0	137	128	0	169.909610000000	602.218050000000	792.991960000000	150.598400000000	167.343380000000	2284.65660000000	2444.81630000000	156.791640000000	242.584930000000	103.501510000000	107.720380000000	242.871720000000	188.291250000000	71.1888540000000	67.0861170000000	214.422480000000	258.241760000000	54.4455540000000	54.4455540000000	265.234770000000	151.348650000000	54.4455540000000	53.4465530000000	185.314690000000
111.144030000000	69.9902580000000	55.4892190000000	51.6664030000000	58.6272050000000	70.9032520000000	63.5979180000000	58.2817820000000	0	0	34	0	0	134	128	0	169.294490000000	595.868840000000	788.339780000000	147.206190000000	165.224970000000	2304.51620000000	2456.48620000000	157.452020000000	211.079870000000	98.8631100000000	77.5272850000000	184.231750000000	190.451240000000	73.4329330000000	90.6867120000000	169.444420000000	185.314690000000	54.4455540000000	53.4465530000000	158.341660000000	136.363640000000	53.4465530000000	53.4465530000000	111.388610000000
111.092930000000	69.6962940000000	55.5682430000000	51.7224160000000	58.6307230000000	70.5849010000000	63.3138340000000	58.2982940000000	0	0	32	0	0	134	133	0	167.922140000000	599.134890000000	781.920560000000	147.214530000000	160.132450000000	2292.75490000000	2433.93990000000	156.364750000000	241.932720000000	87.3888750000000	82.3289650000000	229.333600000000	201.969680000000	98.7701060000000	106.549010000000	181.098200000000	218.281720000000	54.4455540000000	54.4455540000000	211.288710000000	185.314690000000	54.4455540000000	56.4435560000000	115.384620000000
111.123210000000	69.6522750000000	55.6127780000000	51.7484520000000	58.7775460000000	70.4793650000000	63.5046630000000	58.4292230000000	0	0	32	0	0	133	131	0	165.077040000000	587.208860000000	779.707220000000	148.960460000000	159.523890000000	2287.05280000000	2448.31740000000	157.343510000000	244.979150000000	127.697380000000	141.503440000000	164.518720000000	218.279310000000	97.3447070000000	83.2878470000000	154.725670000000	253.246750000000	55.4445550000000	60.4395600000000	107.392610000000	185.314690000000	54.4455540000000	54.4455540000000	64.4355640000000
111.197930000000	69.5685020000000	55.4246090000000	51.7196080000000	58.9271730000000	70.8964940000000	63.8501790000000	58.4414150000000	0	0	30	0	0	132	128	0	163.770710000000	592.899500000000	773.944950000000	147.121980000000	157.719430000000	2310.34320000000	2450.88720000000	159.197420000000	245.246580000000	106.188800000000	77.1512670000000	229.353130000000	208.482410000000	85.7109920000000	80.1537090000000	191.493120000000	251.248750000000	54.4455540000000	53.4465530000000	231.268730000000	175.324680000000	53.4465530000000	53.4465530000000	112.387610000000
111.101400000000	69.3122000000000	55.6958900000000	51.5397180000000	58.9599910000000	70.6872670000000	63.5783860000000	58.5111560000000	0	2	28	0	0	133	127	0	162.724210000000	591.429150000000	776.686580000000	148.901320000000	155.282120000000	2312.19810000000	2449.56320000000	162.290150000000	187.279990000000	94.8511790000000	86.7534180000000	246.605680000000	209.629920000000	76.7043640000000	97.3463060000000	201.774220000000	134.365630000000	54.4455540000000	54.4455540000000	238.261740000000	204.295700000000	54.4455540000000	54.4455540000000	166.333670000000
111.262540000000	69.3077260000000	55.4996320000000	51.5013350000000	59.0221220000000	70.7351820000000	63.6124420000000	58.5351060000000	0	2	30	0	0	132	125	0	170.639570000000	594.604300000000	771.124900000000	153.729520000000	159.027710000000	2309.18140000000	2452.61300000000	163.910920000000	235.318800000000	140.960120000000	128.231460000000	232.839340000000	207.732920000000	113.788870000000	96.1442190000000	204.725210000000	264.235760000000	61.4385610000000	58.4415580000000	229.270730000000	180.319680000000	56.4435560000000	54.4455540000000	186.313690000000
111.243080000000	69.4204600000000	55.2987470000000	51.5055180000000	59.0924390000000	71.1219970000000	63.9165710000000	58.7305330000000	0	2	30	0	0	130	126	0	169.639400000000	599.225390000000	765.164520000000	155.014990000000	158.406630000000	2340.49710000000	2459.52390000000	167.826270000000	224.348250000000	111.923650000000	90.6863960000000	223.194400000000	183.428980000000	64.9292100000000	92.9279140000000	197.957610000000	219.280720000000	54.4455540000000	54.4455540000000	199.300700000000	137.362640000000	53.4465530000000	54.4455540000000	149.350650000000
111.323950000000	69.2738370000000	55.4970850000000	51.5749380000000	58.9935920000000	70.7750250000000	63.4894320000000	58.8539000000000	0	2	32	0	0	131	127	0	168.868940000000	596.031290000000	762.039860000000	155.564040000000	158.489500000000	2323.82970000000	2437.50650000000	165.663750000000	197.720430000000	136.118350000000	134.535030000000	205.902590000000	203.648300000000	74.7408080000000	88.0625820000000	202.457730000000	147.352650000000	54.4455540000000	54.4455540000000	188.311690000000	175.324680000000	54.4455540000000	54.4455540000000	186.313690000000
111.380900000000	69.4181310000000	55.3917750000000	51.3993780000000	58.9214600000000	70.7785530000000	63.4124510000000	59.0236940000000	0	2	32	0	0	130	127	0	167.355770000000	595.947980000000	770.222160000000	154.829960000000	161.280580000000	2309.24740000000	2428.49280000000	166.139310000000	157.634260000000	120.838550000000	150.653360000000	201.284710000000	216.455940000000	109.971470000000	110.690570000000	210.282180000000	111.388610000000	54.4455540000000	62.4375620000000	174.325670000000	188.311690000000	55.4445550000000	54.4455540000000	200.299700000000
111.481330000000	69.6312240000000	55.3900230000000	51.2782100000000	58.8950470000000	70.9343110000000	63.8639230000000	59.1590890000000	0	2	30	0	0	132	126	0	168.010080000000	589.819640000000	768.130110000000	154.421030000000	162.716920000000	2324.15960000000	2454.00990000000	163.415040000000	245.099130000000	94.4717040000000	90.0394170000000	174.500200000000	214.013140000000	73.7135330000000	72.3443540000000	220.404650000000	237.262740000000	54.4455540000000	54.4455540000000	113.386610000000	189.310690000000	53.4465530000000	53.4465530000000	209.290710000000
111.567450000000	69.4564600000000	55.4571580000000	51.3618240000000	58.8326400000000	70.6035770000000	63.7587720000000	59.1466670000000	0	2	30	0	0	128	129	0	169.855590000000	589.982800000000	765.510410000000	156.524610000000	167.946170000000	2322.32740000000	2447.12350000000	165.110680000000	244.508360000000	79.7803290000000	103.069690000000	212.031200000000	198.818680000000	72.6946590000000	104.942860000000	234.568470000000	250.249750000000	53.4465530000000	54.4455540000000	193.306690000000	164.335660000000	53.4465530000000	54.4455540000000	250.249750000000
111.403220000000	69.6842480000000	55.3748490000000	51.5042410000000	58.8966680000000	70.6887900000000	63.8104810000000	59.2009590000000	0	2	32	0	0	130	128	0	172.507200000000	593.014360000000	768.887380000000	156.119510000000	167.579580000000	2311.34280000000	2441.93710000000	164.454150000000	275.810810000000	108.238650000000	125.522710000000	204.021650000000	209.078770000000	106.270070000000	102.772450000000	206.695920000000	316.183820000000	54.4455540000000	56.4435560000000	150.349650000000	186.313690000000	54.4455540000000	54.4455540000000	163.336660000000
111.574100000000	69.4307060000000	55.2896040000000	51.3706410000000	58.9700500000000	70.7561130000000	63.9461280000000	59.3678330000000	0	4	33	0	0	134	128	0	179.699560000000	599.529610000000	767.498920000000	159.036840000000	168.423890000000	2309.70340000000	2447.66910000000	169.181790000000	213.545320000000	105.008260000000	103.914700000000	206.057290000000	204.412720000000	69.5319760000000	60.1244760000000	205.293370000000	192.307690000000	54.4455540000000	54.4455540000000	168.331670000000	161.338660000000	54.4455540000000	53.4465530000000	145.354650000000
111.678190000000	69.3469540000000	55.5057970000000	51.3674040000000	58.8615140000000	70.6263910000000	63.7088510000000	59.3788810000000	0	4	30	0	0	137	128	0	173.658510000000	604.807630000000	763.734180000000	158.142050000000	170.053930000000	2316.10290000000	2436.89300000000	169.295440000000	227.226780000000	92.9092600000000	91.5216790000000	198.321440000000	192.557920000000	62.8347500000000	68.3143660000000	257.288110000000	242.257740000000	54.4455540000000	54.4455540000000	171.328670000000	136.363640000000	53.4465530000000	53.4465530000000	294.205790000000
112.016500000000	69.6773030000000	55.2746160000000	51.3287590000000	58.7580140000000	70.8643000000000	63.8253840000000	59.3980460000000	0	4	30	0	0	134	130	0	174.513170000000	605.948910000000	755.714610000000	153.136090000000	165.358000000000	2310.60750000000	2434.68690000000	169.165370000000	194.595430000000	104.507040000000	97.1872730000000	235.997620000000	176.487030000000	108.860820000000	115.427530000000	190.798140000000	165.334670000000	54.4455540000000	54.4455540000000	216.283720000000	119.380620000000	54.4455540000000	55.4445550000000	137.362640000000
112.058620000000	69.5084980000000	55.1581080000000	51.3569800000000	58.8873220000000	70.8281190000000	63.8528020000000	59.3423930000000	0	4	28	0	0	132	128	0	174.084180000000	595.354690000000	750.898240000000	149.265350000000	167.139540000000	2301.24720000000	2433.75240000000	169.665420000000	203.329080000000	112.652150000000	110.767110000000	212.497190000000	191.041490000000	90.6171430000000	74.8960760000000	194.194320000000	168.331670000000	54.4455540000000	54.4455540000000	203.296700000000	156.343660000000	54.4455540000000	54.4455540000000	165.334670000000
112.020830000000	69.2775080000000	55.1332840000000	51.3988880000000	58.9136600000000	70.7181880000000	63.5679190000000	59.3822660000000	0	4	28	0	0	132	126	0	173.803760000000	594.071940000000	749.061830000000	148.773010000000	162.324840000000	2319.11480000000	2433.81660000000	172.108590000000	214.822680000000	79.8358770000000	82.7902470000000	225.186880000000	198.972040000000	86.9727000000000	63.1302380000000	194.566080000000	186.313690000000	53.4465530000000	54.4455540000000	256.243760000000	195.304700000000	53.4465530000000	53.4465530000000	145.354650000000
112.015730000000	69.4794830000000	55.0362760000000	51.3484490000000	59.0283250000000	70.8526290000000	63.6084910000000	59.4657770000000	0	4	26	0	0	132	124	0	174.969690000000	600.409190000000	739.102020000000	149.525900000000	158.995510000000	2301.37930000000	2424.34280000000	172.080030000000	194.833680000000	91.9928840000000	93.0935660000000	186.312780000000	216.678610000000	95.0511680000000	113.962810000000	189.014140000000	149.350650000000	54.4455540000000	54.4455540000000	152.347650000000	201.298700000000	54.4455540000000	55.4445550000000	132.367630000000
112.059440000000	69.4493830000000	55.1483850000000	51.2754820000000	59.0808680000000	70.7859040000000	63.6476500000000	59.3640510000000	0	4	28	0	0	132	122	0	173.215140000000	591.073900000000	740.337880000000	152.187910000000	163.570700000000	2298.90870000000	2424.38790000000	173.767280000000	229.483970000000	129.521730000000	120.956080000000	200.636300000000	197.783630000000	94.3455840000000	84.2354830000000	194.774520000000	221.278720000000	56.4435560000000	56.4435560000000	168.331670000000	158.341660000000	54.4455540000000	54.4455540000000	170.329670000000
112.028970000000	69.5877940000000	55.2202190000000	51.3756570000000	59.0593870000000	70.6224470000000	63.4664190000000	59.3345440000000	0	4	26	0	0	134	122	0	173.106870000000	596.676840000000	744.827750000000	151.948140000000	162.659450000000	2300.40310000000	2424.62940000000	171.133780000000	225.643920000000	96.4647810000000	78.7916970000000	189.763740000000	228.061490000000	76.3453010000000	83.2842240000000	151.430830000000	221.278720000000	54.4455540000000	53.4465530000000	151.348650000000	226.273730000000	53.4465530000000	53.4465530000000	98.4015980000000
112.173260000000	69.6259670000000	54.9756570000000	51.4033470000000	59.0217370000000	70.9439230000000	63.5440720000000	59.3597080000000	0	4	28	0	0	132	122	0	174.365780000000	600.144210000000	747.318660000000	156.111710000000	161.145450000000	2308.51520000000	2412.65790000000	168.663490000000	231.791250000000	111.462490000000	78.6661880000000	221.204680000000	214.681090000000	72.4586350000000	83.4212950000000	185.444220000000	240.259740000000	54.4455540000000	54.4455540000000	202.297700000000	208.291710000000	54.4455540000000	54.4455540000000	98.4015980000000
112.289320000000	69.5489340000000	55.2192640000000	51.3665540000000	58.9682010000000	70.7978370000000	63.5337190000000	59.3580220000000	0	4	26	0	0	130	120	0	176.655330000000	588.198750000000	745.537420000000	155.528450000000	162.867990000000	2313.26150000000	2418.18010000000	168.031780000000	201.489020000000	141.287700000000	108.842230000000	215.463690000000	204.379330000000	111.582090000000	102.732470000000	216.589350000000	157.342660000000	63.4365630000000	54.4455540000000	195.304700000000	188.311690000000	55.4445550000000	54.4455540000000	212.287710000000
112.378370000000	69.3740070000000	55.1831980000000	51.6183680000000	58.8628100000000	70.8288210000000	63.4201730000000	59.3970660000000	0	4	26	0	0	130	118	0	181.712550000000	590.918350000000	746.532140000000	156.671030000000	163.150940000000	2327.24610000000	2418.08050000000	167.748370000000	244.106770000000	122.814900000000	95.3298390000000	224.185680000000	197.119820000000	74.5157970000000	88.2000580000000	213.563420000000	259.240760000000	57.4425570000000	54.4455540000000	216.283720000000	164.335660000000	53.4465530000000	54.4455540000000	218.281720000000
112.338130000000	69.5867780000000	55.0584980000000	51.5392820000000	58.9164400000000	70.9287030000000	63.6456420000000	59.3953490000000	0	4	28	0	0	134	118	0	185.296250000000	588.421110000000	749.579230000000	155.498840000000	163.823080000000	2305.86440000000	2421.38600000000	167.870260000000	249.113540000000	108.278250000000	91.2933240000000	255.878820000000	209.748040000000	72.5824080000000	84.5179090000000	200.198780000000	263.236760000000	55.4445550000000	54.4455540000000	298.201800000000	192.307690000000	54.4455540000000	54.4455540000000	147.352650000000
112.212790000000	69.3184880000000	55.0464040000000	51.5394320000000	58.7400210000000	70.6396460000000	63.5186080000000	59.3932710000000	0	2	26	0	0	134	120	0	185.755540000000	584.440320000000	746.624880000000	154.478640000000	163.656120000000	2292.55060000000	2409.94910000000	165.874410000000	199.769000000000	121.664380000000	106.391030000000	256.505550000000	222.930920000000	111.522910000000	114.989960000000	207.529790000000	181.318680000000	54.4455540000000	55.4445550000000	278.221780000000	242.257740000000	56.4435560000000	55.4445550000000	174.325670000000
112.197820000000	69.1840360000000	55.1684190000000	51.6368830000000	58.7758930000000	70.6924410000000	63.5937020000000	59.4055190000000	0	2	24	0	0	135	122	0	173.764220000000	584.671090000000	756.551170000000	152.814290000000	161.264210000000	2297.37050000000	2427.16970000000	164.592380000000	220.772800000000	120.594530000000	78.8535050000000	208.875570000000	200.397390000000	64.3414900000000	76.0805660000000	213.684230000000	204.295700000000	54.4455540000000	54.4455540000000	182.317680000000	165.334670000000	53.4465530000000	53.4465530000000	188.311690000000
112.197110000000	69.3382790000000	55.0445220000000	51.5121090000000	58.6909590000000	70.9420330000000	63.7653870000000	59.2775680000000	0	2	26	0	0	134	120	0	175.926420000000	579.322640000000	762.074320000000	152.040260000000	158.645310000000	2304.90220000000	2441.43570000000	165.042640000000	204.669690000000	134.940490000000	87.5289770000000	189.713870000000	206.139980000000	84.9719990000000	76.5608390000000	190.218230000000	164.335660000000	54.4455540000000	54.4455540000000	178.321680000000	185.314690000000	54.4455540000000	54.4455540000000	141.358640000000
112.024220000000	69.2064370000000	55.1643260000000	51.6227770000000	58.6052020000000	70.6626570000000	63.6406140000000	59.1897310000000	0	2	26	0	0	136	122	0	173.303760000000	570.015450000000	761.601870000000	148.419820000000	159.829930000000	2292.86580000000	2432.68170000000	165.770910000000	214.043750000000	143.935360000000	156.349650000000	210.498670000000	194.411500000000	104.018970000000	119.511040000000	193.972060000000	186.313690000000	55.4445550000000	77.4225770000000	173.326670000000	174.325670000000	54.4455540000000	55.4445550000000	186.313690000000
111.901040000000	69.0538600000000	55.1045440000000	51.8626490000000	58.6993690000000	70.7284280000000	63.5669710000000	59.3382290000000	0	2	22	0	0	137	124	0	175.304340000000	569.129050000000	755.366720000000	149.047950000000	157.584610000000	2309.22630000000	2432.48260000000	167.873370000000	210.411370000000	148.466010000000	95.4005690000000	182.681030000000	206.067470000000	88.4338510000000	68.0806550000000	215.890990000000	197.302700000000	64.4355640000000	54.4455540000000	125.374630000000	212.287710000000	54.4455540000000	53.4465530000000	192.307690000000
111.767420000000	69.0214430000000	55.0286130000000	51.9508130000000	58.6529320000000	70.9380580000000	63.5830560000000	59.2669340000000	0	4	24	0	0	132	124	0	178.111130000000	568.571390000000	758.886230000000	150.298230000000	157.120300000000	2311.92030000000	2424.83130000000	168.589610000000	241.081190000000	130.494930000000	80.4194350000000	236.833480000000	209.788070000000	79.6928420000000	62.2415650000000	145.233820000000	252.247750000000	54.4455540000000	54.4455540000000	251.248750000000	192.307690000000	53.4465530000000	53.4465530000000	57.4425570000000
111.819110000000	69.0425140000000	55.2476000000000	52.0322000000000	58.5696910000000	70.6228940000000	63.3888160000000	59.0659250000000	0	4	24	0	0	135	126	0	180.881370000000	566.830690000000	761.233870000000	150.272050000000	155.902170000000	2293.12490000000	2415.39180000000	167.790500000000	189.192890000000	100.170580000000	96.7870160000000	176.895100000000	192.318480000000	78.4879950000000	105.256270000000	171.444710000000	161.338660000000	54.4455540000000	54.4455540000000	125.374630000000	138.361640000000	54.4455540000000	55.4445550000000	108.391610000000
112.115290000000	68.8897840000000	55.1970490000000	51.8573440000000	58.4222340000000	70.6370690000000	63.0429470000000	59.0215950000000	0	4	26	0	0	133	125	0	180.081480000000	561.771480000000	758.179460000000	146.486660000000	156.117760000000	2298.35920000000	2398.59130000000	169.616890000000	213.228480000000	141.643880000000	106.492420000000	191.863410000000	188.249170000000	98.9509510000000	68.2629650000000	175.845050000000	200.299700000000	62.4375620000000	54.4455540000000	159.340660000000	146.353650000000	54.4455540000000	54.4455540000000	107.392610000000
112.040030000000	69.1911260000000	55.0572750000000	51.8587800000000	58.4093670000000	70.9367750000000	63.2845200000000	58.8999090000000	0	2	27	0	0	130	126	0	178.114040000000	561.655930000000	757.996070000000	143.113500000000	155.150560000000	2300.00120000000	2407.30750000000	167.850960000000	256.533870000000	106.214980000000	100.202820000000	207.007250000000	221.127490000000	64.0538910000000	69.4000130000000	224.077550000000	262.237760000000	54.4455540000000	54.4455540000000	207.292710000000	220.279720000000	53.4465530000000	53.4465530000000	206.293710000000
112.114240000000	68.9279870000000	55.1676560000000	51.8312440000000	58.4190510000000	70.6821180000000	63.2376010000000	58.7217120000000	0	2	28	0	0	130	129	0	177.951150000000	558.007650000000	750.777580000000	144.825560000000	158.004700000000	2299.13430000000	2425.26940000000	167.024970000000	253.434320000000	109.019840000000	86.3831260000000	217.737570000000	207.794070000000	76.9271160000000	103.792840000000	201.852790000000	257.242760000000	54.4455540000000	54.4455540000000	222.277720000000	187.312690000000	54.4455540000000	54.4455540000000	176.323680000000
111.999630000000	68.9193310000000	55.1773260000000	51.7756240000000	58.4005630000000	70.3671120000000	63.0548200000000	58.6755130000000	0	2	30	2	0	129	127	0	178.713040000000	556.577890000000	746.871190000000	148.188890000000	160.035620000000	2278.95050000000	2413.84110000000	164.524390000000	200.474010000000	144.679680000000	123.487720000000	166.620680000000	187.367270000000	104.969960000000	79.8120090000000	209.917370000000	160.339660000000	67.4325670000000	57.4425570000000	128.371630000000	146.353650000000	55.4445550000000	54.4455540000000	173.326670000000
111.944700000000	69.0936770000000	55.1365400000000	51.7455570000000	58.1654760000000	70.6406540000000	63.5946750000000	58.8806860000000	0	2	32	2	0	134	126	0	180.049440000000	563.516050000000	747.427190000000	151.718970000000	159.471400000000	2291.51400000000	2443.72140000000	166.347260000000	227.972370000000	101.128430000000	87.8114050000000	191.843030000000	201.599740000000	73.9490740000000	87.5931650000000	220.425340000000	214.285710000000	54.4455540000000	54.4455540000000	139.360640000000	170.329670000000	53.4465530000000	53.4465530000000	188.311690000000
111.966090000000	69.2268450000000	55.4465710000000	51.6953280000000	58.2036110000000	70.2851650000000	63.2454750000000	58.8901120000000	0	2	38	2	0	135	127	0	182.108410000000	565.392540000000	765.146800000000	154.011730000000	163.157730000000	2270.35640000000	2421.32460000000	162.360570000000	281.659630000000	114.236430000000	85.4733950000000	202.778980000000	204.300090000000	70.1236470000000	102.569010000000	240.133500000000	299.200800000000	54.4455540000000	54.4455540000000	185.314690000000	196.303700000000	54.4455540000000	54.4455540000000	242.257740000000
111.993370000000	69.4490070000000	55.2338770000000	51.8951900000000	58.3035720000000	70.3832000000000	62.9793270000000	58.7128180000000	0	4	42	2	0	134	127	0	184.237920000000	583.798920000000	764.845320000000	160.288440000000	165.264090000000	2271.25790000000	2386.60650000000	164.904390000000	242.299500000000	121.707710000000	137.157560000000	207.972680000000	156.770170000000	104.410450000000	107.378070000000	218.911180000000	245.254750000000	54.4455540000000	60.4395600000000	165.334670000000	86.4135860000000	54.4455540000000	54.4455540000000	202.297700000000
112.011870000000	69.4882540000000	55.1841800000000	51.9180450000000	58.2149600000000	70.4987140000000	63.5182140000000	58.8512490000000	0	4	42	2	0	136	124	0	189.214330000000	596.494370000000	777.817820000000	162.948760000000	160.946640000000	2254.49330000000	2434.53160000000	169.925120000000	191.196180000000	78.2451430000000	102.514380000000	173.214570000000	202.235060000000	67.7608730000000	75.4472090000000	189.526270000000	159.340660000000	53.4465530000000	54.4455540000000	111.388610000000	156.343660000000	53.4465530000000	53.4465530000000	142.357640000000
112.007160000000	69.1412110000000	55.4536630000000	51.9171890000000	58.1049320000000	70.2841270000000	63.3189160000000	58.7249620000000	0	6	44	4	0	137	129	2	187.959600000000	611.619650000000	794.129070000000	172.345830000000	164.637120000000	2257.62000000000	2434.89300000000	174.540870000000	239.538480000000	119.997220000000	106.247240000000	188.201040000000	206.656380000000	79.1918980000000	82.8352730000000	207.930570000000	224.275720000000	56.4435560000000	54.4455540000000	138.361640000000	181.318680000000	54.4455540000000	54.4455540000000	186.313690000000
112.676790000000	69.8664050000000	56.4949450000000	52.4175280000000	58.2142000000000	70.9645830000000	64.2309950000000	59.1331840000000	0	8	47	4	0	138	135	2	272.653930000000	722.410310000000	938.550490000000	196.511690000000	171.145070000000	2318.43110000000	2546.20690000000	227.292800000000	97.2130570000000	108.621620000000	95.0069200000000	130.989070000000	194.594030000000	91.9948360000000	115.093770000000	207.129210000000	64.4355640000000	54.4455540000000	60.4395600000000	56.4435560000000	169.330670000000	54.4455540000000	56.4435560000000	179.320680000000
113.577770000000	70.9464330000000	57.4591190000000	52.6406900000000	60.7297910000000	76.3072170000000	67.5824450000000	60.3582030000000	0	12	57	12	6	138	132	4	495.220970000000	894.422600000000	1062.99900000000	265.880630000000	423.093190000000	3107.21710000000	2928.62840000000	342.840970000000	133.078240000000	111.417350000000	142.290520000000	163.341500000000	98.7833670000000	80.6448400000000	77.0337730000000	131.069640000000	76.4235760000000	54.4455540000000	62.4375620000000	120.379620000000	59.4405590000000	54.4455540000000	54.4455540000000	79.4205790000000
116.383460000000	72.6754540000000	65.8746710000000	53.5694870000000	62.4456850000000	81.9686420000000	76.8455480000000	61.8253690000000	8	17	63	18	12	140	139	16	1237.75450000000	1092.69100000000	2081.06410000000	378.108170000000	687.604250000000	4025.17050000000	4309.13250000000	577.596650000000	186.679740000000	88.7558420000000	148.343670000000	186.105950000000	206.300880000000	66.1465880000000	172.540150000000	158.300090000000	126.373630000000	54.4455540000000	92.4075920000000	139.360640000000	182.317680000000	53.4465530000000	125.374630000000	142.357640000000
122.123580000000	76.1713280000000	70.0089930000000	55.4823890000000	70.5188010000000	87.6077630000000	82.3766950000000	63.0715140000000	16	24	71	28	19	136	142	28	2687.91940000000	1528.58950000000	2657.00230000000	547.946920000000	1796.98310000000	4950.29200000000	5170.91080000000	725.168420000000	132.013980000000	108.377430000000	102.195530000000	168.857320000000	143.140540000000	81.1741950000000	115.396560000000	161.497040000000	75.4245750000000	63.4365630000000	65.4345650000000	120.379620000000	93.4065930000000	54.4455540000000	54.4455540000000	120.379620000000
124.635140000000	80.6610070000000	72.7460700000000	56.4287570000000	82.1140450000000	104.875420000000	98.1267990000000	64.9634530000000	22	31	78	34	27	134	140	40	3292.43790000000	2327.91660000000	3060.85830000000	632.929700000000	3445.47690000000	8424.28940000000	7964.26420000000	954.901270000000	158.771780000000	99.8507710000000	104.359060000000	177.073740000000	145.783980000000	71.4980420000000	74.9779250000000	182.756450000000	101.398600000000	62.4375620000000	83.4165830000000	142.357640000000	80.4195800000000	53.4465530000000	53.4465530000000	142.357640000000
126.967010000000	85.8364080000000	75.1891830000000	57.3677390000000	87.3957570000000	115.795000000000	100.387360000000	66.6627730000000	28	37	85	46	30	132	142	50	3961.27310000000	3237.89910000000	3418.09240000000	753.393780000000	4381.61230000000	10751.6890000000	8468.82770000000	1194.62500000000	112.257790000000	81.4563770000000	163.099900000000	177.661920000000	131.108090000000	59.9842800000000	103.648680000000	186.149560000000	74.4255740000000	50.4495500000000	106.393610000000	145.354650000000	77.4225770000000	53.4465530000000	59.4405590000000	149.350650000000
133.070040000000	97.2370830000000	79.5244340000000	58.9967500000000	92.6185850000000	119.364420000000	103.614130000000	71.2805320000000	34	43	88	56	38	133	149	62	5700.74840000000	5269.45730000000	4083.90280000000	1005.02110000000	5315.23000000000	11575.4800000000	9137.82490000000	1790.17730000000	125.155710000000	176.068000000000	144.371070000000	130.121250000000	116.202290000000	165.502630000000	161.064310000000	132.603040000000	70.4295700000000	124.375620000000	99.4005990000000	68.4315680000000	67.4325670000000	108.391610000000	88.4115880000000	83.4165830000000
139.957930000000	102.892150000000	81.4246640000000	61.6509520000000	95.8184880000000	124.070440000000	106.322000000000	73.4704310000000	38	49	96	69	44	131	160	76	7317.90690000000	6432.27620000000	4403.74880000000	1296.34300000000	5982.99500000000	12739.3020000000	9688.52700000000	2150.21930000000	134.150030000000	126.698480000000	140.548130000000	173.874270000000	172.531530000000	109.733690000000	127.788290000000	224.203600000000	85.4145850000000	72.4275720000000	95.4045950000000	133.366630000000	127.372630000000	59.4405590000000	56.4435560000000	238.261740000000
146.124110000000	112.775270000000	84.4785130000000	62.5859360000000	98.6881770000000	134.662870000000	112.043880000000	75.8734840000000	44	53	107	80	52	132	165	82	9156.03800000000	8464.50710000000	4924.43650000000	1443.66200000000	6539.03160000000	15422.8320000000	10958.2590000000	2492.73350000000	133.153770000000	94.8174500000000	161.428020000000	164.733700000000	134.487880000000	105.238800000000	161.566190000000	186.709800000000	76.4235760000000	56.4435560000000	121.378620000000	107.392610000000	79.4205790000000	54.4455540000000	116.383620000000	160.339660000000
153.525910000000	119.017100000000	90.8439440000000	64.8039600000000	105.558160000000	140.283000000000	118.536850000000	78.5277070000000	51	60	116	90	57	134	174	97	11071.6120000000	9827.69800000000	6052.05140000000	1712.30720000000	7928.73320000000	16920.4980000000	12430.1370000000	2915.26140000000	141.219740000000	74.5264380000000	163.036860000000	143.852270000000	141.626680000000	113.772360000000	137.451800000000	197.067720000000	77.4225770000000	54.4455540000000	114.385610000000	80.4195800000000	84.4155840000000	61.4385610000000	80.4195800000000	170.329670000000
155.740030000000	123.412760000000	93.9146360000000	66.3180320000000	109.498780000000	141.955060000000	122.674750000000	81.0099290000000	58	65	125	100	62	133	176	108	12268.3210000000	11010.7350000000	6620.27260000000	1943.85900000000	8636.37160000000	17505.5220000000	13385.5730000000	3271.87440000000	132.730260000000	127.049870000000	156.972710000000	143.862580000000	133.495030000000	120.068380000000	137.168470000000	156.102370000000	75.4245750000000	71.4285710000000	114.385610000000	90.4095900000000	79.4205790000000	66.4335660000000	76.4235760000000	129.370630000000
162.547670000000	129.572120000000	97.0677440000000	67.7164980000000	113.773240000000	150.978050000000	126.753500000000	83.9406220000000	64	71	131	108	68	132	182	120	13994.7870000000	12638.1800000000	7185.48910000000	2086.79350000000	9703.75540000000	20101.9540000000	14464.4660000000	3774.86480000000	88.3564300000000	120.848430000000	147.286880000000	162.038970000000	137.901870000000	64.6883730000000	118.053920000000	168.594140000000	52.4475520000000	69.4305690000000	104.395600000000	111.388610000000	86.4135860000000	53.4465530000000	67.4325670000000	139.360640000000
173.289830000000	132.448470000000	103.802880000000	69.6218080000000	115.674620000000	154.938980000000	130.533790000000	85.7151520000000	70	79	140	118	76	130	186	130	17912.0050000000	13344.7780000000	8499.93080000000	2358.17300000000	10110.8460000000	21235.7670000000	15405.1340000000	4034.01850000000	158.624420000000	159.573800000000	140.459960000000	166.066770000000	135.027920000000	123.918630000000	144.161730000000	144.438540000000	91.4085910000000	104.395600000000	86.4135860000000	116.383620000000	77.4225770000000	65.4345650000000	97.4025970000000	109.390610000000
176.985970000000	136.651810000000	106.822600000000	70.1202480000000	116.072760000000	156.769250000000	133.010520000000	85.9452440000000	78	84	152	126	84	128	190	143	19333.8790000000	14453.8610000000	9186.62360000000	2471.88150000000	10260.1650000000	21785.1820000000	16074.1450000000	4170.01400000000	132.649690000000	144.002360000000	133.271170000000	146.055410000000	135.135110000000	135.404360000000	154.118740000000	161.010070000000	79.4205790000000	90.4095900000000	89.4105890000000	98.4015980000000	76.4235760000000	76.4235760000000	98.4015980000000	134.365630000000
187.437490000000	140.485060000000	108.447320000000	72.4829350000000	119.074520000000	158.530550000000	135.046070000000	88.2671470000000	85	90	160	134	90	130	198	154	22992.3840000000	15461.5850000000	9542.25120000000	2799.75090000000	10958.9630000000	22396.1740000000	16633.1180000000	4551.46190000000	136.671330000000	141.128500000000	156.517620000000	157.817730000000	136.907390000000	113.677250000000	119.670550000000	180.347600000000	80.4195800000000	87.4125870000000	110.389610000000	101.398600000000	78.4215780000000	60.4395600000000	61.4385610000000	148.351650000000
195.030930000000	143.296250000000	110.053250000000	73.7273850000000	121.872700000000	163.821830000000	136.842240000000	90.3265470000000	91	98	169	139	95	124	204	166	25847.7090000000	16284.7290000000	9926.36150000000	2964.84490000000	11607.3220000000	24058.4210000000	17107.8380000000	4937.60040000000	131.120980000000	127.234090000000	149.801850000000	175.631240000000	160.205700000000	91.7306740000000	145.389720000000	186.370100000000	76.4235760000000	75.4245750000000	98.4015980000000	123.376620000000	96.4035960000000	54.4455540000000	91.4085910000000	158.341660000000
198.937490000000	146.755610000000	112.776830000000	74.9828550000000	125.075360000000	164.858270000000	138.115410000000	91.7047450000000	98	104	172	148	101	124	215	176	27260.4010000000	17351.5910000000	10509.5540000000	3147.32130000000	12425.1500000000	24466.9080000000	17466.8500000000	5164.33220000000	134.586710000000	137.278070000000	137.500500000000	150.436220000000	130.955040000000	133.064210000000	161.237970000000	191.769000000000	80.4195800000000	84.4155840000000	89.4105890000000	99.4005990000000	74.4255740000000	73.4265730000000	109.390610000000	167.332670000000
200.337140000000	148.046720000000	113.516860000000	75.3920170000000	125.856280000000	167.434440000000	139.864090000000	92.3260800000000	104	110	176	156	112	125	223	186	27822.8060000000	17737.8230000000	10655.3240000000	3190.14200000000	12624.7400000000	25324.1330000000	17999.3860000000	5291.24420000000	127.280430000000	136.879710000000	154.155760000000	137.454960000000	121.288230000000	128.529710000000	150.356810000000	187.554500000000	73.4265730000000	85.4145850000000	107.392610000000	77.4225770000000	70.4295700000000	68.4315680000000	95.4045950000000	151.348650000000
201.233420000000	148.687770000000	114.814740000000	75.6770730000000	127.091740000000	168.877400000000	143.049030000000	93.4158000000000	108	116	180	164	121	124	228	194	28441.0090000000	17884.6240000000	10947.3920000000	3247.22650000000	12944.5180000000	25739.3170000000	18850.5990000000	5487.31480000000	130.836160000000	127.590270000000	166.139820000000	156.843130000000	126.426690000000	110.622570000000	153.884970000000	178.121680000000	76.4235760000000	76.4235760000000	119.380620000000	101.398600000000	72.4275720000000	60.4395600000000	105.394610000000	148.351650000000
205.071130000000	149.909830000000	117.272660000000	76.4778410000000	129.742330000000	169.412280000000	147.297650000000	94.8583980000000	114	118	184	166	129	123	228	206	29742.4220000000	18281.2320000000	11474.3670000000	3345.42520000000	13579.7010000000	26017.7040000000	20111.5580000000	5739.55460000000	126.872800000000	135.017460000000	137.697050000000	145.499410000000	118.177950000000	122.506370000000	147.283060000000	214.616140000000	73.4265730000000	81.4185810000000	91.4085910000000	93.4065930000000	69.4305690000000	65.4345650000000	100.399600000000	197.302700000000
205.200730000000	150.721770000000	118.029640000000	76.8873410000000	130.498520000000	171.567700000000	148.118820000000	95.7844410000000	116	122	185	168	134	124	228	221	29863.9710000000	18549.8520000000	11654.2010000000	3402.55970000000	13771.0040000000	26760.7640000000	20353.9960000000	5930.83880000000	113.297540000000	135.908880000000	156.017840000000	166.429500000000	120.919150000000	124.681990000000	141.023750000000	155.546740000000	68.4315680000000	81.4185810000000	104.395600000000	125.374630000000	70.4295700000000	67.4325670000000	98.4015980000000	130.369630000000
205.760730000000	152.263440000000	118.118250000000	76.8708460000000	129.581250000000	170.560730000000	147.876710000000	95.7176540000000	124	124	185	166	136	122	234	228	30197.4540000000	18988.1520000000	11689.7830000000	3395.10490000000	13648.6960000000	26342.1550000000	20338.4780000000	5942.94120000000	124.971050000000	130.452010000000	120.009520000000	153.490050000000	119.433280000000	76.1521430000000	160.039280000000	177.153320000000	71.4285710000000	76.4235760000000	76.4235760000000	99.4005990000000	71.4285710000000	55.4445550000000	112.387610000000	146.353650000000
204.352030000000	153.707590000000	114.082600000000	76.8859310000000	130.084270000000	168.261710000000	146.036120000000	95.5625640000000	118	122	188	166	136	129	229	218	29747.8860000000	19389.5880000000	10778.9150000000	3367.82050000000	13666.1810000000	25657.7520000000	19759.5710000000	5838.32310000000	96.5784250000000	84.0578690000000	111.144120000000	141.319510000000	104.015930000000	115.079420000000	148.110890000000	184.385230000000	61.4385610000000	63.4365630000000	91.4085910000000	85.4145850000000	60.4395600000000	59.4405590000000	112.387610000000	161.338660000000
202.378830000000	153.066400000000	112.316740000000	75.6138470000000	126.590540000000	166.799690000000	143.771840000000	96.0615510000000	113	120	189	158	136	128	233	216	28554.5950000000	19268.8260000000	10357.7440000000	3217.60030000000	12717.7500000000	25105.6920000000	19137.9070000000	5926.14340000000	137.975490000000	116.816190000000	133.075410000000	158.103130000000	89.8117780000000	124.879980000000	146.142270000000	188.984290000000	84.4155840000000	72.4275720000000	104.395600000000	108.391610000000	62.4375620000000	74.4255740000000	100.399600000000	166.333670000000
201.553970000000	151.093490000000	111.169220000000	75.4445730000000	120.099550000000	158.304780000000	136.133930000000	95.6363230000000	108	119	190	161	138	128	236	212	28210.4740000000	18582.9750000000	10090.1540000000	3203.80940000000	11311.2790000000	22154.3850000000	17019.7460000000	5884.73330000000	125.676530000000	149.045960000000	124.124430000000	156.888830000000	85.8311210000000	78.7965720000000	146.166800000000	167.633100000000	80.4195800000000	94.4055940000000	84.4155840000000	90.4095900000000	46.4535460000000	52.4475520000000	105.394610000000	135.364640000000
200.132170000000	149.019010000000	110.482380000000	75.4032680000000	116.663180000000	152.076350000000	137.112520000000	95.0680190000000	106	119	193	154	142	128	235	212	27761.8430000000	17947.4750000000	9899.19310000000	3153.52010000000	10439.5060000000	20432.7710000000	17277.9490000000	5790.57030000000	137.966840000000	79.5038320000000	147.302470000000	149.849680000000	123.379090000000	69.9506480000000	143.188520000000	169.644030000000	85.4145850000000	55.4445550000000	95.4045950000000	94.4055940000000	68.4315680000000	54.4455540000000	105.394610000000	155.344660000000
196.482610000000	143.232220000000	108.461990000000	74.2611560000000	113.382290000000	150.267830000000	137.251330000000	93.0054090000000	100	113	192	144	140	132	233	206	26102.7960000000	16194.4750000000	9420.53890000000	2932.96810000000	9640.27890000000	19860.3450000000	17274.6710000000	5400.81140000000	122.880640000000	115.148410000000	151.436220000000	126.460770000000	118.093450000000	95.0638690000000	165.562430000000	179.390570000000	78.4215780000000	77.4225770000000	105.394610000000	89.4105890000000	65.4345650000000	61.4385610000000	137.362640000000	148.351650000000
192.124000000000	139.403420000000	108.457310000000	72.2963180000000	112.107270000000	148.330700000000	137.383460000000	92.4952550000000	96	111	192	135	140	131	228	200	24545.9920000000	15331.2720000000	9492.66330000000	2696.42440000000	9260.42200000000	19312.7410000000	17308.3450000000	5253.47200000000	122.440920000000	119.711080000000	133.851220000000	173.220800000000	78.0393560000000	132.215680000000	137.608010000000	123.125580000000	77.4225770000000	70.4295700000000	94.4055940000000	139.360640000000	60.4395600000000	81.4185810000000	110.389610000000	84.4155840000000
187.692530000000	131.801700000000	106.917840000000	71.6223150000000	109.737220000000	140.267060000000	134.078830000000	90.6771240000000	90	109	185	124	134	134	227	206	22706.2410000000	13319.0530000000	9090.51780000000	2555.95120000000	8761.61120000000	17022.3600000000	16501.8380000000	4970.13720000000	136.008210000000	146.256930000000	159.963790000000	154.706830000000	115.161410000000	80.9859230000000	167.536260000000	193.704220000000	85.4145850000000	91.4085910000000	108.391610000000	107.392610000000	64.4355640000000	54.4455540000000	124.375620000000	179.320680000000
181.698670000000	126.934980000000	101.545520000000	69.5484040000000	103.429860000000	135.316020000000	131.035810000000	88.7038370000000	83	104	178	116	136	133	219	197	20825.4760000000	12114.0900000000	7988.89830000000	2308.92910000000	7488.99810000000	15594.7760000000	15648.1800000000	4617.56150000000	155.334940000000	140.105870000000	136.305390000000	154.870550000000	73.3642760000000	132.134340000000	159.380100000000	178.036690000000	97.4025970000000	79.4205790000000	86.4135860000000	102.397600000000	53.4465530000000	65.4345650000000	117.382620000000	137.362640000000
180.025670000000	124.645500000000	99.4227690000000	68.2783370000000	99.7210400000000	134.860530000000	128.128130000000	86.5465020000000	76	104	180	106	134	131	216	186	19603.7090000000	11663.3470000000	7522.01230000000	2093.48670000000	6803.07060000000	15409.1170000000	14921.6600000000	4289.11100000000	130.436070000000	73.2147970000000	116.618620000000	153.618720000000	130.553760000000	135.294610000000	116.212450000000	156.213330000000	80.4195800000000	58.4415580000000	91.4085910000000	102.397600000000	68.4315680000000	66.4335660000000	72.4275720000000	120.379620000000
174.770250000000	166.721210000000	151.066940000000	67.0502930000000	95.3948300000000	126.139960000000	124.561190000000	83.9357900000000	72	102	172	98	128	130	212	178	18183.4260000000	23367.3730000000	20599.1890000000	1968.91970000000	5800.04180000000	13236.5980000000	14005.1130000000	3824.68200000000	91.2030060000000	87.8908200000000	52.2520130000000	170.479360000000	148.910640000000	86.9449250000000	140.815770000000	179.936330000000	56.4435560000000	60.4395600000000	34.4655340000000	121.378620000000	91.4085910000000	54.4455540000000	79.4205790000000	146.353650000000
164.121160000000	164.369980000000	146.902490000000	65.4509750000000	92.8203420000000	121.899820000000	121.546690000000	82.5236620000000	66	107	164	96	122	130	206	168	14242.5280000000	22882.9890000000	19330.2910000000	1787.92750000000	5382.46190000000	12147.0700000000	13231.5220000000	3596.03970000000	93.9280940000000	115.172510000000	115.734420000000	138.605260000000	126.451400000000	121.332130000000	120.276820000000	175.358540000000	57.4425570000000	75.4245750000000	62.4375620000000	97.4025970000000	73.4265730000000	57.4425570000000	62.4375620000000	139.360640000000
159.176090000000	160.619220000000	144.837070000000	64.7909680000000	92.5179410000000	120.210430000000	119.738740000000	82.2950120000000	58	108	154	88	116	130	200	155	12699.0190000000	21742.8830000000	18699.5300000000	1657.55510000000	5255.64060000000	11768.5260000000	12790.9870000000	3458.63430000000	124.550220000000	115.950790000000	144.572460000000	146.882490000000	133.224690000000	102.471800000000	124.347220000000	175.585470000000	71.4285710000000	70.4295700000000	96.4035960000000	106.393610000000	79.4205790000000	61.4385610000000	68.4315680000000	143.356640000000
147.261060000000	157.570120000000	143.405940000000	62.6909610000000	88.8933870000000	118.609400000000	117.701320000000	79.5538140000000	51	102	146	82	112	128	196	144	9144.58320000000	20753.6830000000	18274.8330000000	1358.35270000000	4585.72090000000	11382.9410000000	12327.7160000000	3086.92580000000	87.6301180000000	124.090270000000	127.595720000000	141.869420000000	99.4278280000000	77.7534830000000	90.7333770000000	189.829440000000	59.4405590000000	74.4255740000000	72.4275720000000	92.4075920000000	61.4385610000000	54.4455540000000	54.4455540000000	166.333670000000
136.884250000000	155.493420000000	142.240620000000	61.1330330000000	85.1649540000000	112.706400000000	116.014250000000	77.3302680000000	45	94	137	77	107	128	192	132	6333.46670000000	19996.3640000000	17953.2410000000	1199.49680000000	3976.19810000000	9949.18430000000	11923.8260000000	2710.30610000000	138.546850000000	138.837260000000	121.156010000000	172.122180000000	139.936840000000	63.6741250000000	142.069530000000	179.160740000000	77.4225770000000	85.4145850000000	64.4355640000000	154.345650000000	85.4145850000000	53.4465530000000	76.4235760000000	146.353650000000
131.306040000000	152.107690000000	140.211960000000	59.7017040000000	80.3399910000000	111.622550000000	114.807440000000	75.5993740000000	38	90	128	70	101	128	181	122	4999.59090000000	18995.5670000000	17333.5200000000	1034.14170000000	3175.36970000000	9676.95560000000	11667.8110000000	2485.50680000000	115.653090000000	132.476100000000	133.343360000000	170.259100000000	151.236920000000	95.0243700000000	150.944130000000	189.371490000000	65.4345650000000	82.4175820000000	70.4295700000000	138.361640000000	103.396600000000	54.4455540000000	90.4095900000000	158.341660000000
129.515800000000	150.726300000000	139.469750000000	59.3544040000000	79.6754330000000	108.528070000000	113.332390000000	74.9459030000000	32	88	120	62	92	128	173	112	4519.48880000000	18637.6140000000	17166.1710000000	991.360650000000	3027.40700000000	9058.55220000000	11282.3840000000	2357.89540000000	95.9735180000000	128.134630000000	128.190620000000	197.478960000000	87.4096430000000	90.0052510000000	118.072580000000	187.936570000000	62.4375620000000	81.4185810000000	69.4305690000000	160.339660000000	56.4435560000000	54.4455540000000	62.4375620000000	160.339660000000
128.822710000000	150.390740000000	138.308020000000	58.9876020000000	78.1479100000000	107.405620000000	109.902760000000	73.5976090000000	28	84	116	56	87	126	168	104	3997.96800000000	18539.3450000000	16867.7590000000	931.117530000000	2769.01890000000	8798.62810000000	10509.7520000000	2160.95980000000	130.355320000000	123.655590000000	126.956940000000	177.683210000000	105.403740000000	78.9113170000000	121.477310000000	180.006040000000	69.4305690000000	73.4265730000000	65.4345650000000	113.386610000000	64.4355640000000	54.4455540000000	61.4385610000000	143.356640000000
123.395320000000	149.209150000000	136.145630000000	57.8118040000000	73.2007520000000	106.846620000000	104.382070000000	71.8852840000000	22	82	108	52	81	125	164	90	2790.80540000000	18153.8220000000	16286.5600000000	829.281860000000	2166.36530000000	8668.38330000000	9329.14470000000	1924.75680000000	87.0062650000000	138.900560000000	127.676000000000	146.712280000000	99.4204390000000	119.574930000000	147.928070000000	191.905570000000	54.4455540000000	87.4125870000000	64.4355640000000	102.397600000000	54.4455540000000	57.4425570000000	69.4305690000000	158.341660000000
122.746220000000	148.215040000000	134.998840000000	57.3444120000000	72.2163220000000	103.689890000000	103.098110000000	70.1313600000000	20	80	102	50	76	123	158	75	2673.09260000000	17835.9840000000	15947.6930000000	770.441340000000	1976.98550000000	8001.99450000000	9099.79570000000	1669.97260000000	103.784370000000	137.606170000000	115.443930000000	155.982590000000	109.443010000000	112.212670000000	86.3988530000000	165.683620000000	56.4435560000000	86.4135860000000	56.4435560000000	116.383620000000	58.4415580000000	55.4445550000000	54.4455540000000	110.389610000000
120.540680000000	146.339760000000	134.256000000000	56.6190170000000	71.8719950000000	103.113240000000	102.292230000000	69.2396790000000	12	74	92	44	68	124	152	66	2173.88520000000	17255.0570000000	15767.3530000000	686.545600000000	1856.22410000000	7849.98900000000	8857.46210000000	1540.64170000000	122.049730000000	130.874260000000	125.409780000000	206.913000000000	136.305440000000	70.9815270000000	113.472470000000	187.293710000000	70.4295700000000	80.4195800000000	62.4375620000000	185.314690000000	76.4235760000000	53.4465530000000	55.4445550000000	156.343660000000
121.114300000000	144.039300000000	133.930250000000	55.8104530000000	69.8546690000000	102.534680000000	99.6073220000000	68.0510890000000	10	73	83	38	62	116	151	64	1991.59900000000	16752.7330000000	15650.4000000000	604.245680000000	1625.01680000000	7741.84210000000	8344.81380000000	1413.83910000000	108.479280000000	142.145310000000	125.490220000000	178.943010000000	124.583980000000	103.733670000000	139.553170000000	184.073820000000	57.4425570000000	95.4045950000000	64.4355640000000	148.351650000000	65.4345650000000	55.4445550000000	73.4265730000000	136.363640000000
118.671060000000	143.307670000000	133.183370000000	55.7632810000000	68.1108430000000	101.574250000000	97.5811600000000	66.3248900000000	7	68	72	36	55	117	144	54	1774.22460000000	16434.6710000000	15462.1670000000	583.552650000000	1440.49660000000	7565.14860000000	7964.62610000000	1183.48410000000	84.6608160000000	145.717670000000	126.715890000000	174.202370000000	107.142530000000	107.931710000000	94.7567320000000	186.884410000000	57.4425570000000	97.4025970000000	64.4355640000000	142.357640000000	54.4455540000000	54.4455540000000	54.4455540000000	145.354650000000
117.854370000000	142.885360000000	132.554480000000	55.0371620000000	67.0489880000000	100.921200000000	94.8952050000000	65.0560050000000	6	62	64	27	47	116	140	46	1580.00540000000	16314.4130000000	15291.9010000000	516.358900000000	1246.50680000000	7374.18360000000	7405.20860000000	991.905810000000	113.882900000000	132.927200000000	125.619360000000	218.222030000000	166.659530000000	60.8771340000000	117.073030000000	186.778690000000	69.4305690000000	82.4175820000000	63.4365630000000	179.320680000000	105.394610000000	53.4465530000000	57.4425570000000	149.350650000000
118.107830000000	142.199940000000	131.630350000000	54.3723460000000	66.2153430000000	97.7473650000000	91.1533620000000	63.9820130000000	2	56	54	22	40	117	138	36	1446.43470000000	16142.1810000000	15083.8260000000	459.778850000000	1149.05310000000	6780.73520000000	6724.85610000000	845.896980000000	79.0961460000000	138.876480000000	124.775810000000	200.049000000000	104.715240000000	114.247400000000	93.5691840000000	178.363940000000	56.4435560000000	85.4145850000000	61.4385610000000	174.325670000000	57.4425570000000	55.4445550000000	54.4455540000000	148.351650000000
