678.411300000000	213.765220000000	115.015780000000	188.103480000000	165.569150000000	110.719290000000	171.942420000000	171.051660000000	42	67	80	68	76	108	120	93	452366.750000000	41798.4600000000	10869.7790000000	32956.7620000000	24046.7630000000	9617.91840000000	28678.5930000000	26077.8630000000	90.2166710000000	96.7892340000000	109.870490000000	103.671980000000	75.1474420000000	91.9398700000000	90.5681910000000	76.6265660000000	32.4675320000000	39.4605390000000	56.4435560000000	48.4515480000000	26.4735260000000	54.4455540000000	33.4665330000000	28.4715280000000
677.755600000000	213.785250000000	115.685360000000	188.398400000000	160.519910000000	109.299210000000	189.106070000000	173.676640000000	46	66	82	62	82	106	112	90	451777.720000000	41884.5050000000	11106.4780000000	32915.4600000000	22974.5330000000	9273.66260000000	34210.2700000000	27262.3270000000	89.1676560000000	90.3104240000000	107.978720000000	100.717360000000	48.6791810000000	88.7148610000000	54.7131650000000	75.7949000000000	32.4675320000000	37.4625370000000	53.4465530000000	46.4535460000000	22.4775220000000	53.4465530000000	23.4765230000000	29.4705290000000
669.888300000000	214.066450000000	115.667250000000	187.002280000000	156.296670000000	103.954200000000	187.143090000000	173.425410000000	49	62	80	60	84	106	110	93	436463.950000000	41796.9060000000	11089.2120000000	32628.3670000000	21264.1080000000	8029.91190000000	33472.2990000000	26861.0990000000	112.598110000000	102.376000000000	109.036230000000	100.334400000000	86.7949130000000	77.7493660000000	67.0430960000000	67.7320570000000	54.4455540000000	51.4485510000000	55.4445550000000	47.4525470000000	32.4675320000000	47.4525470000000	26.4735260000000	21.4785210000000
636.408230000000	208.724830000000	111.783020000000	164.972910000000	154.184240000000	99.2848510000000	182.305810000000	172.443740000000	47	60	82	58	81	103	109	89	398251.260000000	39854.1230000000	10500.9560000000	24816.7790000000	20572.7960000000	7316.44100000000	31519.5880000000	26266.5230000000	98.1668290000000	133.176650000000	93.3855230000000	127.236400000000	66.3152680000000	90.5818490000000	88.0912150000000	88.0244240000000	37.4625370000000	71.4285710000000	60.4395600000000	60.4395600000000	23.4765230000000	54.4455540000000	38.4615380000000	30.4695300000000
600.248690000000	202.727130000000	97.4422930000000	159.665880000000	152.790020000000	99.6236660000000	176.364840000000	147.549500000000	48	57	81	52	82	106	111	91	351622.730000000	36754.3540000000	7394.81020000000	22907.2040000000	19751.6770000000	7346.60010000000	29903.2430000000	18955.6650000000	106.398290000000	141.938370000000	101.085710000000	115.634560000000	62.9621330000000	118.455570000000	83.8806640000000	94.3848740000000	43.4565430000000	64.4355640000000	54.4455540000000	56.4435560000000	19.4805190000000	54.4455540000000	36.4635360000000	38.4615380000000
601.963990000000	205.165120000000	98.8141080000000	158.958110000000	134.773110000000	96.1442700000000	153.497010000000	146.041990000000	48	54	80	62	86	108	122	91	352437.370000000	38373.3220000000	7523.83400000000	22733.6310000000	15555.1350000000	6576.34270000000	21972.6710000000	18240.7430000000	102.421180000000	104.270000000000	106.693670000000	127.579180000000	113.010210000000	113.405870000000	108.851280000000	103.071930000000	40.4595400000000	49.4505490000000	54.4455540000000	69.4305690000000	48.4515480000000	54.4455540000000	51.4485510000000	43.4565430000000
618.599940000000	222.865520000000	104.916080000000	166.097210000000	143.692890000000	96.7705450000000	155.139720000000	144.601180000000	48	55	86	66	87	99	123	96	372137.940000000	44829.6380000000	8990.67120000000	24950.4080000000	17571.3420000000	6621.19060000000	22461.6450000000	18044.3210000000	98.8556360000000	84.5668180000000	98.1257990000000	120.601690000000	85.4414470000000	91.6239810000000	114.148000000000	94.3890160000000	35.4645350000000	30.4695300000000	50.4495500000000	58.4415580000000	31.4685310000000	54.4455540000000	54.4455540000000	42.4575420000000
647.692980000000	240.743840000000	120.927690000000	184.986180000000	148.183800000000	102.408660000000	155.279550000000	159.914500000000	46	54	86	69	82	99	120	92	413371.070000000	54259.4520000000	12417.8120000000	32040.4960000000	18261.7680000000	7617.82740000000	22544.0670000000	22129.0610000000	82.3518470000000	75.9918660000000	98.9967180000000	96.5547010000000	83.2102370000000	150.185560000000	123.724850000000	119.819480000000	27.4725270000000	24.4755240000000	48.4515480000000	45.4545450000000	32.4675320000000	94.4055940000000	65.4345650000000	53.4465530000000
675.368150000000	250.745800000000	132.012180000000	189.544020000000	148.328670000000	120.580400000000	157.496490000000	163.704540000000	42	47	82	70	84	100	115	92	442579.830000000	59102.1990000000	15541.6050000000	33422.8200000000	18969.7280000000	11825.4590000000	23240.6810000000	23618.5800000000	82.9173880000000	70.9691210000000	72.0073440000000	96.3103850000000	87.7415060000000	100.532360000000	119.420040000000	105.627030000000	26.4735260000000	23.4765230000000	32.4675320000000	45.4545450000000	31.4685310000000	53.4465530000000	58.4415580000000	44.4555440000000
686.587000000000	255.418210000000	135.802600000000	188.824250000000	148.507800000000	121.820980000000	157.103290000000	163.435990000000	43	44	79	64	81	99	118	94	464321.960000000	61302.4980000000	16090.2770000000	33194.3910000000	18817.9770000000	12148.1510000000	23149.5810000000	23612.8840000000	81.9222800000000	48.3332320000000	89.0233570000000	96.5281340000000	87.2126280000000	88.5299120000000	102.866980000000	103.519420000000	21.4785210000000	22.4775220000000	45.4545450000000	45.4545450000000	27.4725270000000	53.4465530000000	47.4525470000000	44.4555440000000
684.856810000000	253.744390000000	135.278780000000	187.110040000000	138.952840000000	122.320490000000	157.189310000000	163.967420000000	42	40	73	51	90	98	120	88	458832.820000000	60717.6090000000	16107.8350000000	32565.5710000000	16033.2860000000	12389.3820000000	23138.5700000000	23534.1260000000	65.0845710000000	54.6601430000000	94.3624780000000	94.3257180000000	64.4738360000000	84.5892190000000	115.160050000000	103.399030000000	15.4845150000000	21.4785210000000	43.4565430000000	41.4585410000000	36.4635360000000	47.4525470000000	56.4435560000000	43.4565430000000
656.392130000000	234.539690000000	132.032580000000	174.377720000000	137.702260000000	123.859970000000	155.900980000000	162.420750000000	40	41	70	49	88	100	118	84	421099.910000000	50464.1450000000	15349.4090000000	28216.9130000000	15652.4500000000	12708.7800000000	22830.1790000000	23159.4390000000	57.3965100000000	89.9401690000000	114.326410000000	107.390450000000	117.912510000000	97.9087240000000	121.656790000000	99.5072660000000	14.4855140000000	33.4665330000000	47.4525470000000	50.4495500000000	54.4455540000000	53.4465530000000	61.4385610000000	43.4565430000000
604.279000000000	221.939960000000	127.659580000000	167.457200000000	144.417280000000	125.828070000000	156.905090000000	153.775120000000	40	42	67	50	83	99	120	84	356985.060000000	46085.0720000000	14069.3190000000	25390.2640000000	17395.8140000000	13235.4100000000	23098.5540000000	20129.3870000000	86.8945010000000	83.0236950000000	112.092010000000	112.315640000000	111.362570000000	59.2728690000000	73.5509570000000	116.966020000000	23.4765230000000	28.4715280000000	50.4495500000000	57.4425570000000	50.4495500000000	36.4635360000000	35.4645350000000	54.4455540000000
530.479440000000	217.866410000000	124.271360000000	166.344350000000	153.428150000000	126.022440000000	167.652680000000	156.583870000000	41	46	67	46	84	106	120	86	269640.230000000	43880.3530000000	13464.3450000000	25034.2250000000	20415.3480000000	13554.1420000000	26789.2000000000	21588.3100000000	94.4732760000000	54.9622540000000	90.4851520000000	136.515710000000	76.3375600000000	91.8949520000000	92.9434310000000	104.737440000000	32.4675320000000	27.4725270000000	34.4655340000000	80.4195800000000	26.4735260000000	53.4465530000000	39.4605390000000	43.4565430000000
519.190600000000	213.594960000000	134.712530000000	173.822470000000	165.304340000000	131.238040000000	178.709270000000	157.861380000000	45	46	71	48	77	105	112	89	258433.870000000	41372.4910000000	16049.7690000000	27718.3510000000	23963.8420000000	14568.5910000000	30345.8650000000	22464.3240000000	119.826340000000	66.5090050000000	98.1922200000000	109.761790000000	77.4556390000000	108.158770000000	112.519750000000	97.8858740000000	56.4435560000000	26.4735260000000	48.4515480000000	52.4475520000000	27.4725270000000	53.4465530000000	57.4425570000000	40.4595400000000
542.804160000000	231.730440000000	137.434320000000	185.062840000000	174.607430000000	130.684620000000	186.094190000000	192.725960000000	48	47	73	51	76	104	113	91	285992.210000000	50208.0800000000	16562.4880000000	31802.3510000000	27761.8520000000	14515.3980000000	32884.5310000000	33509.5580000000	89.9621180000000	93.5727060000000	111.898650000000	103.776760000000	66.2831040000000	118.297720000000	76.1043890000000	86.0848870000000	34.4655340000000	41.4585410000000	50.4495500000000	46.4535460000000	30.4695300000000	59.4405590000000	27.4725270000000	30.4695300000000
542.610140000000	233.258120000000	137.490000000000	185.635850000000	190.858810000000	131.947270000000	223.379410000000	193.178490000000	51	48	82	56	73	104	106	99	285244	50592.2560000000	16738.5510000000	31954.6740000000	33462.4670000000	14830.9340000000	48522.0260000000	34420.3330000000	93.6469750000000	97.4227670000000	107.639210000000	100.658810000000	80.7800050000000	69.8280130000000	85.4257150000000	90.7931330000000	36.4635360000000	42.4575420000000	51.4485510000000	44.4555440000000	26.4735260000000	48.4515480000000	31.4685310000000	32.4675320000000
542.260410000000	233.568590000000	138.101840000000	185.634630000000	188.044430000000	130.313550000000	224.357840000000	193.838130000000	49	45	76	56	73	102	100	94	283671.210000000	50614.9730000000	16747.3260000000	31944.5720000000	32060.6660000000	14361.1970000000	48702.0270000000	34544.4520000000	86.2106060000000	95.7645540000000	111.783040000000	101.260750000000	93.3675910000000	106.582240000000	70.0797150000000	78.9901400000000	30.4695300000000	41.4585410000000	53.4465530000000	44.4555440000000	28.4715280000000	54.4455540000000	25.4745250000000	27.4725270000000
518.024660000000	231.944790000000	135.258850000000	183.824710000000	183.375810000000	128.526200000000	219.905830000000	192.067230000000	52	44	76	57	72	100	110	97	259253.300000000	49778.3590000000	16258.2620000000	31461.3440000000	30688.7210000000	13763.3540000000	46838.5110000000	33567.8340000000	94.6288780000000	101.559200000000	113.088660000000	101.139350000000	87.9650650000000	105.415180000000	58.7364970000000	77.3896650000000	34.4655340000000	42.4575420000000	54.4455540000000	47.4525470000000	26.4735260000000	53.4465530000000	24.4755240000000	26.4735260000000
497.711160000000	228.904560000000	131.320290000000	150.665410000000	183.356150000000	126.291760000000	214.376470000000	170.315970000000	54	48	75	64	72	98	112	94	236431.010000000	48885.4830000000	15103.8780000000	20366.1520000000	30413.8180000000	13389.3110000000	44567.3870000000	25825.1130000000	83.3059920000000	95.6648490000000	117.736730000000	115.890250000000	63.9525100000000	73.4204560000000	80.5719010000000	94.8856740000000	29.4705290000000	43.4565430000000	61.4385610000000	46.4535460000000	19.4805190000000	48.4515480000000	33.4665330000000	29.4705290000000
461.128290000000	217.966170000000	134.938660000000	148.209010000000	179.993290000000	126.158040000000	198.468310000000	165.888250000000	53	50	82	64	72	99	116	99	202739.350000000	43858.7630000000	16032.5830000000	19550.7080000000	30024.3090000000	13417.8110000000	37424.5580000000	24574.0810000000	120.123440000000	108.697230000000	94.1187570000000	126.286820000000	99.8049900000000	116.951700000000	50.7049120000000	90.3645130000000	58.4415580000000	49.4505490000000	55.4445550000000	64.4355640000000	39.4605390000000	55.4445550000000	33.4665330000000	32.4675320000000
502.887340000000	285.264640000000	151.897410000000	172.863880000000	187.967530000000	130.577150000000	187.192210000000	160.726870000000	46	50	84	70	65	96	119	102	235782.270000000	77957.7440000000	20514.5020000000	26810.1870000000	32137.4430000000	14105.7880000000	33405.2840000000	22939.0640000000	97.3503340000000	83.9509250000000	125.354240000000	121.284380000000	110.131520000000	105.517790000000	101.271210000000	59.5811170000000	38.4615380000000	30.4695300000000	69.4305690000000	62.4375620000000	41.4585410000000	54.4455540000000	52.4475520000000	25.4745250000000
611.570370000000	290.208860000000	163.234210000000	192.647400000000	195.738310000000	144.783260000000	189.832460000000	194.796930000000	44	56	88	74	63	96	117	91	367071.480000000	80228.1500000000	24347.7320000000	35014.0200000000	35148.0930000000	17848.4000000000	34448.7510000000	34532.0740000000	61.5319920000000	86.5122050000000	103.243340000000	85.8679700000000	89.0244920000000	99.9940810000000	118.781580000000	71.1430250000000	24.4755240000000	34.4655340000000	47.4525470000000	36.4635360000000	24.4755240000000	52.4475520000000	60.4395600000000	36.4635360000000
711.066730000000	329.507350000000	176.176310000000	200.192550000000	195.454910000000	155.843800000000	197.137980000000	196.037380000000	45	56	88	77	68	102	115	90	491448.790000000	104596.350000000	28830.3430000000	37529.7930000000	35362.4370000000	21667.4290000000	37489.8370000000	35253.7640000000	59.8838370000000	85.3470540000000	83.7994160000000	85.3527320000000	87.6632460000000	84.0733900000000	119.579710000000	103.180870000000	16.4835160000000	32.4675320000000	31.4685310000000	36.4635360000000	25.4745250000000	50.4495500000000	60.4395600000000	47.4525470000000
738.558350000000	332.296520000000	176.784440000000	199.999420000000	196.066630000000	156.421050000000	197.254240000000	195.359830000000	42	58	91	82	62	102	112	87	537795.130000000	106887.990000000	28993.6150000000	37617.8360000000	35101.0820000000	21822.9960000000	37474.0270000000	35114.0940000000	72.6451040000000	82.6616170000000	83.1600320000000	93.4682810000000	91.8819000000000	102.352450000000	118.621140000000	106.967340000000	17.4825170000000	26.4735260000000	31.4685310000000	39.4605390000000	28.4715280000000	53.4465530000000	58.4415580000000	50.4495500000000
743.338180000000	330.654420000000	175.712210000000	199.984750000000	195.534150000000	158.580470000000	197.419100000000	195.767360000000	39	58	90	72	59	98	110	82	543143.010000000	104920.680000000	28738.6080000000	37558.9010000000	34412.4260000000	22479.8760000000	37357.2970000000	34999.9200000000	78.5459960000000	74.9469440000000	92.6281020000000	92.7831460000000	87.1282140000000	101.161660000000	119.577890000000	107.085420000000	18.4815180000000	24.4755240000000	34.4655340000000	39.4605390000000	29.4705290000000	53.4465530000000	58.4415580000000	49.4505490000000
731.556850000000	319.201820000000	172.802100000000	194.374010000000	194.976630000000	163.428150000000	195.400170000000	197.494760000000	39	59	86	69	60	101	116	80	525856.440000000	98898.0840000000	27452.9580000000	35392.1300000000	34507.5500000000	23796.2040000000	36759.4190000000	35245.4880000000	89.3844360000000	101.151350000000	49.8242870000000	94.4040890000000	45.1270110000000	70.4774450000000	113.075150000000	101.304470000000	26.4735260000000	42.4575420000000	22.4775220000000	34.4655340000000	21.4785210000000	44.4555440000000	57.4425570000000	51.4485510000000
719.131170000000	305.574820000000	161.219840000000	177.128860000000	215.136140000000	163.655930000000	199.894950000000	189.653410000000	39	62	89	75	55	97	117	81	508587.060000000	89211.3080000000	23960.2410000000	28580.3020000000	43222.6110000000	24212.3360000000	38810.9190000000	32822.5060000000	99.2010530000000	98.3999850000000	93.9562830000000	131.135890000000	85.4820200000000	65.4352870000000	101.186870000000	142.620310000000	43.4565430000000	40.4595400000000	34.4655340000000	74.4255740000000	35.4645350000000	44.4555440000000	46.4535460000000	85.4145850000000
730.498770000000	299.141030000000	154.564100000000	189.139670000000	238.083020000000	155.741650000000	201.675430000000	186.091490000000	40	67	90	69	52	98	119	84	526697.660000000	85437.6220000000	21326.4880000000	33718.4930000000	52715.0220000000	21902.2000000000	39463.3970000000	31808.4160000000	72.3956480000000	108.020900000000	94.3142280000000	85.3870350000000	71.3843500000000	70.3098540000000	118.788850000000	116.178600000000	22.4775220000000	47.4525470000000	39.4605390000000	37.4625370000000	24.4755240000000	43.4565430000000	58.4415580000000	57.4425570000000
737.675490000000	302.640940000000	156.136640000000	199.363810000000	249.232750000000	159.293540000000	210.248410000000	214.636140000000	41	68	87	71	53	99	119	86	532413.110000000	87134.8850000000	22258.4160000000	37176.8020000000	59447.7070000000	22660.6310000000	42472.9610000000	42781.6120000000	88.2654460000000	49.7006140000000	121.421360000000	107.562430000000	94.9210640000000	98.0602940000000	121.230490000000	91.9057640000000	39.4605390000000	27.4725270000000	59.4405590000000	48.4515480000000	30.4695300000000	54.4455540000000	61.4385610000000	34.4655340000000
736.502110000000	303.875560000000	158.318080000000	200.682030000000	270.364940000000	159.182980000000	221.346870000000	218.614020000000	44	70	88	76	45	101	111	91	533813.140000000	88362.8000000000	22821.7860000000	37746.1620000000	69134.0420000000	22586.3470000000	47945.3850000000	44583.8570000000	95.9427460000000	105.433000000000	97.6133760000000	109.046910000000	83.2080140000000	123.425410000000	129.937780000000	91.5005730000000	35.4645350000000	54.4455540000000	43.4565430000000	46.4535460000000	27.4725270000000	65.4345650000000	73.4265730000000	31.4685310000000
736.144980000000	303.081480000000	158.415120000000	200.790920000000	273.269180000000	157.440790000000	248.219240000000	219.444770000000	45	72	88	80	44	102	112	92	533691.180000000	87902.6940000000	22851.0020000000	37822.7840000000	71663.2410000000	22157.0040000000	60085.5590000000	45122.5580000000	99.4892050000000	112.595210000000	115.368300000000	109.454830000000	72.0229460000000	104.280770000000	86.0036910000000	86.5405220000000	38.4615380000000	55.4445550000000	59.4405590000000	48.4515480000000	23.4765230000000	54.4455540000000	39.4605390000000	29.4705290000000
736.042210000000	302.861640000000	158.273420000000	200.945910000000	270.035940000000	155.609860000000	247.144800000000	218.329670000000	46	70	88	76	40	101	110	94	532225.540000000	87750.2310000000	22846.1800000000	37813.2880000000	69806.0360000000	21639.3810000000	59722.2650000000	44952.5650000000	99.7707640000000	112.952440000000	115.453480000000	110.563840000000	91.0432670000000	99.9549420000000	66.6328380000000	93.0932040000000	38.4615380000000	55.4445550000000	59.4405590000000	48.4515480000000	28.4715280000000	54.4455540000000	30.4695300000000	31.4685310000000
710.946680000000	301.513380000000	158.110420000000	200.165070000000	265.258810000000	154.129730000000	240.283210000000	216.352910000000	46	68	93	80	43	92	112	90	496289.810000000	86636.6880000000	22515.0590000000	37754.7830000000	67125.5160000000	20683.1080000000	56039.4320000000	43501.4790000000	84.5312750000000	109.811360000000	140.706220000000	117.111080000000	100.167740000000	103.858660000000	92.2833590000000	94.1375730000000	29.4705290000000	54.4455540000000	94.4055940000000	55.4445550000000	38.4615380000000	54.4455540000000	34.4655340000000	32.4675320000000
705.590280000000	301.062730000000	149.988130000000	194.827280000000	260.113680000000	149.037740000000	233.284180000000	215.760520000000	44	70	97	80	44	94	111	85	488719.420000000	86931.5000000000	20391.2990000000	35456.2930000000	65159.9400000000	19588.1330000000	52957.6250000000	42624.5240000000	87.5288290000000	86.3151770000000	158.878520000000	94.3228010000000	81.1930090000000	111.621720000000	117.721160000000	87.8626110000000	32.4675320000000	44.4555440000000	111.388610000000	40.4595400000000	25.4745250000000	54.4455540000000	54.4455540000000	29.4705290000000
705.681640000000	301.820800000000	148.622810000000	187.399450000000	282.924020000000	148.577420000000	230.131680000000	184.854730000000	42	71	102	83	44	93	107	97	486705.580000000	85410.7480000000	20207.2060000000	32487.3720000000	76209.4110000000	19373.0350000000	51785.5470000000	31781.0510000000	89.0844830000000	127.618340000000	88.3774120000000	134.906380000000	61.5473900000000	99.7685860000000	103.318330000000	84.1237340000000	26.4735260000000	64.4355640000000	42.4575420000000	81.4185810000000	20.4795200000000	54.4455540000000	45.4545450000000	32.4675320000000
771.929330000000	318.808210000000	159.220050000000	195.105690000000	277.356260000000	148.173270000000	196.454540000000	206.561440000000	39	68	96	81	45	92	110	95	590149.540000000	97923.8270000000	23089.2130000000	35703.4190000000	72649.4280000000	19000.0410000000	36953.3880000000	39124.7640000000	89.6918110000000	99.0605830000000	106.288180000000	82.9646690000000	99.7236450000000	130.492090000000	80.6605330000000	103.858150000000	28.4715280000000	40.4595400000000	49.4505490000000	36.4635360000000	41.4585410000000	65.4345650000000	33.4665330000000	46.4535460000000
821.691280000000	348.263970000000	168.877010000000	202.567990000000	280.965330000000	160.100350000000	198.908990000000	205.056340000000	38	68	98	83	48	90	108	100	659274.740000000	116945.670000000	26699.2900000000	38450.2200000000	75921.0530000000	23056.3200000000	38155.1220000000	39087.6860000000	83.0813530000000	66.4175020000000	79.3960520000000	99.3040730000000	96.8299540000000	100.672480000000	94.3397620000000	109.628780000000	21.4785210000000	30.4695300000000	31.4685310000000	42.4575420000000	34.4655340000000	54.4455540000000	44.4555440000000	55.4445550000000
846.023910000000	360.277120000000	174.299350000000	202.525450000000	281.218860000000	160.645590000000	199.169000000000	205.731020000000	35	68	98	86	50	91	101	86	708934.090000000	126306.430000000	28148.7810000000	38579.2450000000	76006.1690000000	23149.8280000000	38228.1340000000	39057.6510000000	77.6300870000000	85.2997240000000	89.1638310000000	97.1097530000000	97.5683830000000	109.335750000000	111.584380000000	110.039480000000	17.4825170000000	35.4645350000000	30.4695300000000	39.4605390000000	35.4645350000000	54.4455540000000	53.4465530000000	55.4445550000000
848.744230000000	361.706540000000	174.204870000000	202.487700000000	280.786480000000	161.068930000000	199.443400000000	204.546180000000	32	64	92	84	51	92	98	86	711891.440000000	127026.410000000	28261.8120000000	38554.9080000000	75670.7730000000	23462.8450000000	38411.7280000000	38908.3360000000	72.9095000000000	83.5191330000000	76.8410090000000	97.6847880000000	95.7358260000000	103.054340000000	110.066860000000	111.443550000000	16.4835160000000	34.4655340000000	26.4735260000000	38.4615380000000	34.4655340000000	53.4465530000000	52.4475520000000	56.4435560000000
848.232910000000	359.525970000000	170.505530000000	200.266800000000	277.957670000000	161.938200000000	199.352690000000	205.224200000000	30	62	84	76	50	91	95	78	710734.470000000	124735	26997.3670000000	37499.7580000000	73284.3620000000	23537.9340000000	38107.2170000000	38704.8770000000	72.0240750000000	89.5825880000000	83.0497880000000	95.9533620000000	82.7513250000000	116.166270000000	114.963580000000	115.565770000000	15.4845150000000	35.4645350000000	28.4715280000000	38.4615380000000	28.4715280000000	59.4405590000000	54.4455540000000	58.4415580000000
825.233900000000	306.947860000000	155.581890000000	182.318840000000	280.206990000000	159.396690000000	194.641690000000	206.366100000000	32	64	78	70	49	94	95	76	676995.260000000	89696.1040000000	22371.4550000000	31211.0330000000	75095.7070000000	22993.9800000000	36513.5840000000	38843.0940000000	72.8919970000000	93.7244430000000	87.6463570000000	140.858620000000	96.7015650000000	97.1161560000000	98.1777850000000	89.0139960000000	16.4835160000000	36.4635360000000	35.4645350000000	87.4125870000000	37.4625370000000	52.4475520000000	51.4485510000000	44.4555440000000
764.398600000000	302.111600000000	143.290320000000	159.321090000000	295.687740000000	152.086170000000	194.555820000000	176.434210000000	32	61	76	72	49	96	95	80	574742.890000000	87531.3340000000	18535.5910000000	22335.8160000000	84345.9200000000	21031.9130000000	36591.7260000000	28254.4550000000	109.785610000000	91.6183320000000	100.777880000000	30.4914850000000	111.634340000000	58.3826040000000	117.981870000000	95.4916030000000	46.4535460000000	36.4635360000000	36.4635360000000	16.4835160000000	49.4505490000000	49.4505490000000	57.4425570000000	42.4575420000000
696.794660000000	261.940700000000	130.754830000000	174.236800000000	303.928020000000	148.571490000000	190.049750000000	175.609090000000	33	60	80	71	46	92	97	85	479240.150000000	64479.3920000000	14782.1180000000	28026.1130000000	88590.1600000000	19399.4660000000	34861.5470000000	28032.9680000000	73.6938440000000	84.0274930000000	88.7926200000000	128.420850000000	94.3037890000000	66.1063040000000	114.122180000000	120.913730000000	23.4765230000000	36.4635360000000	51.4485510000000	75.4245750000000	34.4655340000000	50.4495500000000	54.4455540000000	68.4315680000000
682.215100000000	266.529910000000	136.094790000000	182.607470000000	304.714870000000	148.739450000000	200.498100000000	193.879950000000	37	61	79	70	49	90	98	90	454136.590000000	66570.4550000000	16372.4420000000	30805.4780000000	89776.7250000000	19434.2510000000	38474.9690000000	33966.9610000000	107.629450000000	109.764880000000	112.792540000000	105.769710000000	92.3918860000000	92.6701860000000	106.774750000000	90.8581500000000	42.4575420000000	53.4465530000000	51.4485510000000	42.4575420000000	33.4665330000000	52.4475520000000	45.4545450000000	29.4705290000000
676.953460000000	267.654570000000	137.232670000000	183.793510000000	312.578910000000	146.734920000000	214.001220000000	195.150640000000	41	62	79	70	49	85	90	89	450383.620000000	67914.6850000000	16658.6280000000	31231.4820000000	94244.4700000000	18801.3920000000	44659.8510000000	35063.5300000000	94.3144880000000	111.519690000000	103.664510000000	99.3532550000000	87.9147250000000	111.584880000000	56.6107140000000	97.7868700000000	33.4665330000000	54.4455540000000	47.4525470000000	39.4605390000000	30.4695300000000	54.4455540000000	32.4675320000000	31.4685310000000
674.833260000000	268.512740000000	137.863160000000	183.453890000000	308.596460000000	140.965700000000	218.453030000000	199.305420000000	47	62	74	69	47	84	81	88	448118.200000000	67984.7060000000	16769.8660000000	31178.1770000000	92453.7000000000	17595.5970000000	46271.9700000000	36604.5490000000	93.4711780000000	112.954450000000	108.843590000000	98.0657680000000	85.4623830000000	51.5310040000000	98.1039690000000	86.4247650000000	32.4675320000000	55.4445550000000	52.4475520000000	39.4605390000000	29.4705290000000	27.4725270000000	35.4645350000000	28.4715280000000
662.566370000000	268.536070000000	137.907320000000	183.095720000000	293.468380000000	137.354070000000	214.274050000000	196.052670000000	45	60	69	60	47	92	81	89	425957.200000000	67982.3370000000	16660.3090000000	30991.0680000000	83380.1240000000	16342.6550000000	44089.2640000000	35477.0720000000	103.105320000000	109.919680000000	111.991820000000	97.8412210000000	108.011450000000	99.9765420000000	83.0279030000000	87.7921340000000	41.4585410000000	53.4465530000000	55.4445550000000	39.4605390000000	47.4525470000000	53.4465530000000	35.4645350000000	27.4725270000000
619.822040000000	266.401180000000	135.321800000000	165.824490000000	274.798310000000	130.778140000000	210.868410000000	194.784360000000	48	62	66	67	49	94	82	84	376511.630000000	66817.7090000000	16104.8690000000	24621.0590000000	72753.6160000000	14279.0060000000	42708.7800000000	34426.1270000000	102.268080000000	113.403340000000	124.746050000000	84.6049910000000	120.585940000000	115.888810000000	92.7884630000000	85.9634440000000	39.4605390000000	54.4455540000000	64.4355640000000	38.4615380000000	53.4465530000000	54.4455540000000	34.4655340000000	23.4765230000000
597.256970000000	257.844080000000	128.565570000000	153.349370000000	263.967190000000	124.673970000000	202.585870000000	164.994580000000	48	65	70	73	51	89	79	80	348382.930000000	63033.9950000000	14256.5210000000	21178.7610000000	66147.1620000000	13007.5770000000	39752.1750000000	23984.3550000000	99.8631020000000	92.0958600000000	134.307580000000	88.0079760000000	95.4175250000000	117.687690000000	107.639570000000	123.671460000000	34.4655340000000	46.4535460000000	67.4325670000000	34.4655340000000	33.4665330000000	56.4435560000000	48.4515480000000	68.4315680000000
595.694650000000	272.089730000000	126.734570000000	154.961340000000	269.556760000000	124.145970000000	191.339320000000	157.272860000000	54	64	75	74	51	87	84	84	346563.530000000	69447.3900000000	13859.9390000000	21710.9200000000	71306.6130000000	12825.6820000000	34736.9010000000	21842.0340000000	94.8204630000000	52.7480870000000	105.358630000000	102.183370000000	88.1761250000000	97.2374300000000	81.5703610000000	89.7372210000000	32.4675320000000	33.4665330000000	61.4385610000000	48.4515480000000	31.4685310000000	54.4455540000000	49.4505490000000	42.4575420000000
611.647210000000	288.525810000000	129.139810000000	167.214540000000	294.409500000000	125.624190000000	156.622510000000	158.623770000000	53	63	80	77	54	86	86	85	361365.220000000	79710.2340000000	14499.2220000000	25373.1090000000	83322.2630000000	13030.4600000000	22947.4410000000	22189.9910000000	98.3063650000000	99.6095120000000	108.373420000000	114.400840000000	76.9972040000000	49.3880650000000	113.171600000000	119.454290000000	34.4655340000000	42.4575420000000	56.4435560000000	54.4455540000000	28.4715280000000	33.4665330000000	54.4455540000000	61.4385610000000
658.701720000000	293.410600000000	140.807000000000	170.539950000000	299.223800000000	139.402350000000	158.526440000000	227.834990000000	52	66	82	82	55	86	87	85	425862.180000000	81891.5740000000	17457.9480000000	26870.1040000000	86549.4720000000	16932.7070000000	23594.9320000000	48623.3540000000	73.2602910000000	96.7193900000000	95.4588220000000	110.736030000000	88.3209520000000	56.6631640000000	136.628830000000	94.8676940000000	17.4825170000000	41.4585410000000	40.4595400000000	52.4475520000000	27.4725270000000	50.4495500000000	72.4275720000000	48.4515480000000
698.909100000000	298.400160000000	147.794230000000	173.921360000000	298.655640000000	157.229170000000	162.429520000000	227.844120000000	51	65	78	84	53	90	83	85	477758.450000000	84635.3850000000	19675.9160000000	27585.4340000000	86112.7020000000	22188.2280000000	25009.3240000000	48691.5580000000	79.7781910000000	88.7873990000000	92.3071120000000	110.421330000000	88.0431590000000	89.5897420000000	100.265720000000	101.750790000000	20.4795200000000	35.4645350000000	30.4695300000000	49.4505490000000	30.4695300000000	53.4465530000000	40.4595400000000	52.4475520000000
705.435870000000	298.328270000000	148.177850000000	172.751750000000	297.244210000000	158.046010000000	161.859500000000	227.540030000000	49	62	79	86	51	90	83	84	490441.840000000	84950.4740000000	19571.5490000000	27335.4800000000	84646.7600000000	22345.4460000000	24750.8270000000	48637.6620000000	70.7815690000000	87.6701830000000	110.752690000000	98.9366280000000	91.9106260000000	96.2758580000000	112.956340000000	100.712470000000	14.4855140000000	33.4665330000000	44.4555440000000	46.4535460000000	31.4685310000000	53.4465530000000	54.4455540000000	51.4485510000000
689.548040000000	284.850710000000	146.286270000000	169.325310000000	270.278510000000	158.075670000000	159.325040000000	227.925020000000	48	62	79	80	52	92	88	70	467336.550000000	78091.9040000000	18987.4660000000	26239.8960000000	69948.9850000000	22501.2730000000	23829.9940000000	48483.5830000000	55.3896390000000	103.938180000000	94.1607980000000	106.171160000000	100.240330000000	86.6827300000000	118.056030000000	101.689150000000	13.4865130000000	37.4625370000000	35.4645350000000	44.4555440000000	40.4595400000000	52.4475520000000	62.4375620000000	52.4475520000000
612.102740000000	263.012010000000	134.577970000000	160.322040000000	265.494360000000	159.087250000000	156.284350000000	208.123380000000	49	68	80	77	53	94	91	67	360527.310000000	64849.7250000000	16012.3400000000	23080.7900000000	67952.7600000000	22739.1750000000	22951.5960000000	40309.6740000000	75.1507440000000	89.7790970000000	88.4360750000000	119.769140000000	123.922540000000	81.6992700000000	109.789940000000	162.729470000000	15.4845150000000	36.4635360000000	28.4715280000000	49.4505490000000	57.4425570000000	52.4475520000000	50.4495500000000	114.385610000000
544.653460000000	223.764730000000	122.456410000000	150.137880000000	269.380030000000	148.328700000000	152.401460000000	209.828560000000	51	68	79	79	51	98	98	66	292954.600000000	46456.6840000000	12504.3120000000	20140.3590000000	68933.3390000000	19135.0070000000	21852.7370000000	40334.8780000000	86.3052980000000	50.8372710000000	133.278350000000	122.465320000000	120.089620000000	112.718070000000	70.6048840000000	122.255210000000	25.4745250000000	31.4685310000000	83.4165830000000	61.4385610000000	50.4495500000000	54.4455540000000	28.4715280000000	64.4355640000000
524.000520000000	203.556840000000	117.827150000000	153.008330000000	281.124470000000	149.043600000000	156.405140000000	210.772140000000	58	70	78	74	49	97	98	74	261511.950000000	37245.9830000000	11592.5340000000	20543.6290000000	76093.5050000000	20077.8390000000	22821.5140000000	41530.5290000000	64.2222380000000	57.4885110000000	87.3969230000000	131.729290000000	96.9205950000000	115.308240000000	122.017610000000	116.618260000000	22.4775220000000	29.4705290000000	42.4575420000000	82.4175820000000	34.4655340000000	57.4425570000000	59.4405590000000	58.4415580000000
525.346440000000	209.804880000000	127.044900000000	181.552590000000	288.201250000000	157.090170000000	184.101990000000	217.815950000000	60	70	80	70	48	96	97	76	265254.670000000	38848.0010000000	14031.5500000000	30358.6410000000	79507.3210000000	21932.0700000000	32055.6490000000	45342.4470000000	88.1307970000000	90.8326000000000	80.8695040000000	102.537420000000	97.4522320000000	90.8476130000000	96.9339000000000	104.502110000000	28.4715280000000	35.4645350000000	34.4655340000000	46.4535460000000	34.4655340000000	52.4475520000000	38.4615380000000	47.4525470000000
540.391310000000	213.109510000000	133.266020000000	187.628010000000	293.104650000000	157.406460000000	185.452070000000	248.421740000000	62	72	80	74	50	94	99	77	283015.730000000	41841.7500000000	15381.5170000000	32791.3040000000	83199.6710000000	22018.2690000000	32535.2670000000	58141.6740000000	86.0948700000000	110.029880000000	83.9858520000000	100.257560000000	62.4346320000000	86.0267030000000	87.7882740000000	108.898240000000	29.4705290000000	53.4465530000000	36.4635360000000	42.4575420000000	29.4705290000000	49.4505490000000	34.4655340000000	51.4485510000000
541.263060000000	216.528810000000	133.711490000000	188.180850000000	293.980640000000	156.416390000000	213.401520000000	249.010460000000	62	72	86	74	51	95	95	79	283020.790000000	43007.5920000000	15701.5120000000	32831.1480000000	83502.3680000000	21942.5830000000	44120.4860000000	59266.0800000000	91.9831060000000	102.028360000000	102.167380000000	100.664320000000	80.9886660000000	100.083390000000	95.8984460000000	98.1624570000000	32.4675320000000	45.4545450000000	51.4485510000000	42.4575420000000	27.4725270000000	53.4465530000000	32.4675320000000	38.4615380000000
522.228200000000	217.560950000000	133.898680000000	187.355690000000	273.637660000000	152.302290000000	211.145370000000	249.637720000000	62	67	84	68	50	94	96	78	259237.670000000	43023.8010000000	15668.5870000000	32627.6160000000	71515.3200000000	20390.4830000000	42851.8320000000	59118.1230000000	103.178880000000	102.717540000000	104.128410000000	100.230620000000	79.9066570000000	94.2930290000000	71.7240110000000	78.0991750000000	41.4585410000000	49.4505490000000	53.4465530000000	42.4575420000000	26.4735260000000	52.4475520000000	23.4765230000000	27.4725270000000
486.247230000000	213.772140000000	130.234210000000	164.710560000000	264.376140000000	143.675740000000	208.158940000000	249.139830000000	64	72	84	66	53	97	99	77	227854.390000000	41760.0500000000	14936.7690000000	24414.3820000000	67076.5260000000	18132.4720000000	41496.9430000000	58549.5370000000	99.4566280000000	104.819090000000	113.983830000000	120.807670000000	101.691460000000	115.676920000000	86.1214090000000	92.3588400000000	40.4595400000000	52.4475520000000	60.4395600000000	69.4305690000000	39.4605390000000	58.4415580000000	31.4685310000000	34.4655340000000
463.327110000000	203.740060000000	124.055130000000	155.573950000000	265.052230000000	143.042250000000	198.301060000000	235.882360000000	65	70	82	68	54	96	100	72	204766.970000000	37562.5210000000	13199.0210000000	21592.5540000000	66868.7290000000	17977.6190000000	37969.9920000000	52756.0610000000	110.572870000000	68.0283220000000	119.886090000000	118.546530000000	84.8509120000000	121.376190000000	89.4562510000000	98.7804510000000	50.4495500000000	30.4695300000000	61.4385610000000	69.4305690000000	32.4675320000000	61.4385610000000	32.4675320000000	41.4585410000000
462.098520000000	205.136600000000	123.767960000000	154.146680000000	255.838570000000	143.424270000000	184.379300000000	234.566910000000	65	70	91	75	54	105	104	75	202252.840000000	38030.0710000000	13237.7250000000	21249.9080000000	62742.2220000000	18015.1620000000	32018.8210000000	51701.6940000000	104.310460000000	117.767760000000	89.1186660000000	133.292940000000	88.2755120000000	137.070590000000	104.667390000000	108.405230000000	42.4575420000000	42.4575420000000	62.4375620000000	81.4185810000000	32.4675320000000	75.4245750000000	44.4555440000000	48.4515480000000
471.421660000000	212.768650000000	127.430740000000	158.095760000000	301.536350000000	144.191760000000	178.061700000000	229.523080000000	62	70	97	82	54	105	111	85	211499.700000000	40639.6050000000	14334.4910000000	22332.8990000000	87714.7640000000	18163.4670000000	30198.7680000000	49952.7490000000	101.312670000000	101.828850000000	133.588670000000	145.252170000000	78.9249790000000	131.259270000000	139.166790000000	117.508280000000	43.4565430000000	47.4525470000000	81.4185810000000	91.4085910000000	29.4705290000000	71.4285710000000	87.4125870000000	56.4435560000000
527.066520000000	234.232930000000	142.161060000000	169.776580000000	302.875220000000	145.916480000000	179.597650000000	233.460800000000	63	72	101	85	54	98	107	84	267336.140000000	51514.4200000000	17995.5490000000	26512.9170000000	88112.1630000000	18572.5880000000	30689.8310000000	51717.2920000000	104.360930000000	86.2053680000000	77.6849660000000	114.027810000000	81.2639740000000	121.150430000000	115.907000000000	113.202760000000	39.4605390000000	36.4635360000000	43.4565430000000	59.4405590000000	28.4715280000000	62.4375620000000	52.4475520000000	54.4455540000000
636.297040000000	252.424620000000	154.804760000000	175.957140000000	304.631800000000	155.484320000000	181.571430000000	252.049160000000	60	65	104	78	52	95	104	86	388829.740000000	59421.1110000000	22257.5210000000	28399.8320000000	89868.7020000000	21444.0290000000	31288.0760000000	60324.3850000000	77.3035470000000	79.1202860000000	95.6017380000000	100.213840000000	79.6691350000000	133.794310000000	117.517280000000	93.0379370000000	15.4845150000000	35.4645350000000	41.4585410000000	42.4575420000000	27.4725270000000	69.4305690000000	54.4455540000000	35.4645350000000
669.656690000000	255.951040000000	159.912500000000	176.000760000000	305.227500000000	156.135460000000	181.609850000000	251.702340000000	59	61	100	72	50	97	104	90	441676.210000000	61389.5410000000	23411.3640000000	28412.1250000000	89845.4350000000	21786.7300000000	31508.4450000000	60380.5860000000	69.7221370000000	66.9407950000000	93.8526180000000	97.3633840000000	82.0538250000000	97.8723530000000	105.190360000000	93.7024690000000	15.4845150000000	27.4725270000000	39.4605390000000	41.4585410000000	28.4715280000000	53.4465530000000	47.4525470000000	35.4645350000000
672.386930000000	240.466710000000	159.285190000000	172.964610000000	282.847590000000	156.672600000000	181.554190000000	252.319120000000	52	61	99	70	57	97	106	81	441899.040000000	54346.3570000000	23278.7490000000	27191.4370000000	74983.3910000000	21990.6410000000	31433.8380000000	60282.4060000000	64.1717710000000	108.237640000000	87.7161380000000	100.659790000000	109.165620000000	93.8875960000000	65.8995380000000	93.1284410000000	14.4855140000000	41.4585410000000	31.4685310000000	41.4585410000000	44.4555440000000	53.4465530000000	31.4685310000000	35.4645350000000
659.883080000000	220.777730000000	157.855860000000	160.921570000000	252.423240000000	157.526350000000	181.617890000000	251.037880000000	51	59	96	63	58	98	104	77	428259.320000000	44255.7730000000	22729.2240000000	23461.4180000000	60549.9700000000	22337.1780000000	31639.3650000000	59575.0800000000	68.3635570000000	112.353320000000	51.0689290000000	115.472100000000	99.0679170000000	48.0697290000000	114.904650000000	84.1509480000000	15.4845150000000	53.4465530000000	27.4725270000000	57.4425570000000	37.4625370000000	50.4495500000000	54.4455540000000	33.4665330000000
613.487980000000	214.141840000000	147.140990000000	157.374900000000	245.728490000000	147.082150000000	180.613170000000	189.736530000000	54	56	94	64	61	97	108	75	365314.040000000	42020.9680000000	19660.0210000000	22008.1420000000	57215.5000000000	18805.4050000000	31033.2240000000	32778.7620000000	83.4578290000000	114.278730000000	98.7543100000000	116.455510000000	134.422310000000	76.6420600000000	115.890580000000	135.634190000000	20.4795200000000	52.4475520000000	41.4585410000000	58.4415580000000	77.4225770000000	54.4455540000000	57.4425570000000	78.4215780000000
569.738370000000	206.530680000000	139.296120000000	153.900760000000	253.277840000000	127.854920000000	179.728020000000	191.903380000000	61	59	98	58	62	97	114	74	319388.100000000	39000.5740000000	17396.9230000000	21274.5130000000	60944.1160000000	13691.2370000000	30883.1560000000	33467.1680000000	85.1645330000000	105.351460000000	119.375470000000	127.804610000000	99.5212260000000	137.534970000000	108.956370000000	79.8804030000000	21.4785210000000	44.4555440000000	58.4415580000000	71.4285710000000	38.4615380000000	74.4255740000000	50.4495500000000	37.4625370000000
578.931540000000	206.638320000000	141.127990000000	179.599230000000	257.886470000000	130.419920000000	183.372470000000	193.607890000000	60	60	90	53	64	95	113	79	322262.540000000	38498.5130000000	17691.1470000000	30082.2290000000	62983.8870000000	14703.2460000000	32355.1120000000	34624.7790000000	69.8091910000000	104.306670000000	99.7236050000000	117.358600000000	94.5934200000000	91.8983200000000	118.911390000000	112.356380000000	19.4805190000000	44.4555440000000	43.4565430000000	56.4435560000000	33.4665330000000	52.4475520000000	55.4445550000000	49.4505490000000
588.532390000000	213.082210000000	145.544990000000	187.809450000000	262.173260000000	133.481680000000	204.545020000000	221.868830000000	63	63	86	55	67	93	114	80	336900.150000000	41098.1670000000	18852.9910000000	32497.9850000000	65723.8860000000	15032.0920000000	40110.5690000000	45666.0480000000	107.573400000000	81.2428040000000	115.889400000000	94.1046790000000	101.852440000000	97.6600140000000	89.3988170000000	79.2525250000000	45.4545450000000	31.4685310000000	55.4445550000000	46.4535460000000	44.4555440000000	53.4465530000000	36.4635360000000	27.4725270000000
588.974140000000	215.956280000000	145.804120000000	190.640950000000	272.075250000000	131.005750000000	213.132430000000	225.961640000000	66	56	86	58	65	97	110	78	337116.170000000	42677.2990000000	19002.0540000000	33879.4720000000	70471.8590000000	14629.1220000000	44311.4440000000	48034.1420000000	101.920370000000	90.8115990000000	110.090740000000	99.3338720000000	76.8317670000000	113.407090000000	64.6781440000000	68.4104800000000	41.4585410000000	35.4645350000000	48.4515480000000	45.4545450000000	25.4745250000000	58.4415580000000	23.4765230000000	21.4785210000000
587.884510000000	215.646670000000	146.094810000000	190.908650000000	264.042600000000	129.526770000000	231.916520000000	228.489000000000	65	57	87	56	65	94	103	76	334565.260000000	42570.7010000000	19051.1760000000	33876.6260000000	67057.7190000000	14366.7040000000	52046.4880000000	49308.4990000000	105.078880000000	108.587090000000	103.715880000000	98.4298360000000	96.5024530000000	89.1122380000000	74.0685620000000	77.5060180000000	42.4575420000000	51.4485510000000	48.4515480000000	45.4545450000000	33.4665330000000	49.4505490000000	27.4725270000000	25.4745250000000
571.157470000000	215.328390000000	143.108660000000	188.881260000000	251.293410000000	127.508200000000	229.016910000000	227.027090000000	61	52	86	56	65	96	104	84	317795.180000000	41966.9550000000	18406.5270000000	33379.6500000000	59479.2950000000	13163.6550000000	51000.2230000000	48145.7030000000	104.897870000000	105.960140000000	103.436570000000	88.3676880000000	93.7072050000000	104.908840000000	81.7808750000000	80.2671280000000	42.4575420000000	49.4505490000000	48.4515480000000	43.4565430000000	37.4625370000000	53.4465530000000	31.4685310000000	27.4725270000000
566.366510000000	206.916160000000	134.406650000000	161.228730000000	243.393290000000	117.192580000000	206.762470000000	220.703710000000	58	58	85	59	68	96	109	88	311525.150000000	39511.2360000000	15823.8500000000	23540.1350000000	56314.0810000000	11098.8380000000	41518.6760000000	44299.4730000000	103.777300000000	97.4965490000000	102.340420000000	113.213060000000	88.6990940000000	128.056310000000	88.0883840000000	82.7310570000000	41.4585410000000	41.4585410000000	44.4555440000000	55.4445550000000	39.4605390000000	67.4325670000000	39.4605390000000	27.4725270000000
551.381520000000	203.965850000000	131.682150000000	154.657010000000	237.261770000000	115.134550000000	205.573630000000	186.236580000000	59	57	86	62	66	98	107	87	293864.430000000	37340.1820000000	15161.3460000000	21269.4920000000	52696.4070000000	10747.9750000000	41042.0150000000	31929.3060000000	122.547480000000	112.975270000000	89.9530490000000	123.156140000000	94.6059580000000	111.883020000000	94.9416810000000	109.095870000000	65.4345650000000	54.4455540000000	60.4395600000000	65.4345650000000	39.4605390000000	54.4455540000000	40.4595400000000	47.4525470000000
552.692110000000	212.947120000000	134.985410000000	158.154400000000	239.611580000000	114.936890000000	174.631370000000	183.715300000000	59	58	86	67	64	96	113	86	295673.110000000	41365.0240000000	15986.3670000000	22435.9630000000	54872.0910000000	10609.3190000000	29037.5910000000	30430.0850000000	99.4605330000000	95.7554100000000	122.656080000000	129.520200000000	104.052550000000	60.2545700000000	151.156270000000	99.9981760000000	32.4675320000000	38.4615380000000	76.4235760000000	73.4265730000000	47.4525470000000	42.4575420000000	99.4005990000000	41.4585410000000
596.782930000000	220.242560000000	148.083860000000	174.576360000000	331.538860000000	119.886000000000	175.621690000000	182.526740000000	59	65	90	71	66	96	110	85	343561.720000000	44323.3830000000	19785.7700000000	27712.4480000000	106763.880000000	11623.6250000000	29224.5520000000	30180.4770000000	89.5030900000000	111.096800000000	102.288580000000	107.815040000000	81.1964750000000	98.1722410000000	100.844630000000	114.175150000000	26.4735260000000	55.4445550000000	45.4545450000000	51.4485510000000	31.4685310000000	53.4465530000000	51.4485510000000	49.4505490000000
650.733610000000	229.393820000000	151.057570000000	179.354350000000	332.491670000000	121.848330000000	175.633100000000	188.327620000000	57	62	86	74	71	92	106	84	419684.370000000	48424.6840000000	20462.5490000000	29957.9400000000	107161.080000000	11880.5250000000	29360.3670000000	32471.9690000000	83.8976510000000	101.912630000000	100.756240000000	106.501560000000	86.3900430000000	109.504900000000	116.479210000000	106.994600000000	25.4745250000000	41.4585410000000	43.4565430000000	48.4515480000000	32.4675320000000	54.4455540000000	57.4425570000000	44.4555440000000
733.436410000000	236.388320000000	155.217930000000	181.414360000000	331.982160000000	142.136960000000	177.699340000000	193.438080000000	53	62	86	70	69	90	107	88	527223.910000000	52015.9410000000	22046.4420000000	30326.1720000000	107200.090000000	17451.7110000000	30085.0460000000	34336.6310000000	79.9793550000000	57.0836770000000	91.3654260000000	99.1026850000000	80.4849700000000	89.9476510000000	121.550960000000	106.751710000000	19.4805190000000	21.4785210000000	37.4625370000000	44.4555440000000	29.4705290000000	41.4585410000000	60.4395600000000	49.4505490000000
743.717350000000	234.123580000000	155.079820000000	180.689290000000	331.946000000000	142.200280000000	177.796960000000	193.446000000000	50	61	73	64	69	86	102	88	547382.440000000	50455.7070000000	21738.9450000000	30153.5940000000	106768.230000000	17550.5840000000	30062.1990000000	34284.2380000000	64.9765070000000	98.1779340000000	82.0221690000000	91.9654510000000	80.8103370000000	86.6813220000000	116.294730000000	108.517160000000	15.4845150000000	42.4575420000000	36.4635360000000	38.4615380000000	29.4705290000000	39.4605390000000	56.4435560000000	50.4495500000000
742.283590000000	226.283290000000	151.357530000000	177.757640000000	290.879530000000	141.219080000000	176.957880000000	193.887910000000	48	60	69	58	74	88	98	75	543039.650000000	47741.9270000000	20503.0850000000	29182.2240000000	81404.4030000000	17500.3880000000	29829.7870000000	34137.9580000000	68.9192350000000	70.4599530000000	90.9781650000000	100.174210000000	106.698400000000	94.3896990000000	83.7925220000000	104.113910000000	16.4835160000000	27.4725270000000	40.4595400000000	41.4585410000000	46.4535460000000	47.4525470000000	44.4555440000000	47.4525470000000
704.600710000000	203.739550000000	138.560530000000	166.884600000000	288.911470000000	141.603940000000	175.345540000000	189.645350000000	47	60	67	57	82	89	102	70	489349.380000000	36946.3610000000	17193.2030000000	25230.2360000000	80652.6440000000	17499.2820000000	29275.6900000000	32287.4570000000	70.2631090000000	88.7659270000000	137.814490000000	110.029000000000	114.134000000000	102.668910000000	116.194450000000	105.473100000000	20.4795200000000	31.4685310000000	83.4165830000000	56.4435560000000	54.4455540000000	56.4435560000000	54.4455540000000	49.4505490000000
608.488960000000	182.003050000000	123.431970000000	159.528980000000	288.350720000000	133.143250000000	174.862850000000	165.318860000000	48	59	68	57	85	93	104	68	365923.190000000	29311.6520000000	12643.4190000000	23011.7230000000	79650.6510000000	15179.0170000000	29101.6470000000	23900.7870000000	60.5187930000000	133.379360000000	101.875420000000	125.302890000000	126.386030000000	112.043040000000	114.866860000000	111.544660000000	23.4765230000000	80.4195800000000	41.4585410000000	66.4335660000000	67.4325670000000	72.4275720000000	54.4455540000000	53.4465530000000
603.405130000000	179.286600000000	116.439970000000	160.201830000000	290.312200000000	132.118940000000	176.644590000000	167.460860000000	49	64	74	56	89	100	105	73	356781.710000000	28381.6780000000	11619.1580000000	23016.2980000000	81162.8630000000	14845.4940000000	29802.5100000000	24750.5680000000	119.999290000000	106.407730000000	100.025730000000	127.381560000000	111.416440000000	109.186590000000	131.728570000000	108.329340000000	60.4395600000000	59.4405590000000	39.4605390000000	69.4305690000000	51.4485510000000	54.4455540000000	69.4305690000000	47.4525470000000
630.019970000000	182.917540000000	120.311570000000	191.059240000000	295.082160000000	164.194650000000	189.712300000000	168.009200000000	46	61	68	54	85	99	103	81	386220.470000000	28812.9140000000	12146.7030000000	34382.8010000000	83809.1250000000	25057.1820000000	34356.4260000000	25646.4930000000	96.1509500000000	121.125820000000	80.8354350000000	92.7930770000000	109.049800000000	104.677850000000	103.039220000000	104.294030000000	32.4675320000000	60.4395600000000	32.4675320000000	53.4465530000000	51.4485510000000	48.4515480000000	50.4495500000000	48.4515480000000
643.639190000000	191.345050000000	124.813980000000	198.610510000000	303.370700000000	184.264980000000	193.650980000000	196.507990000000	50	64	67	55	84	96	110	85	407115.880000000	32454.6340000000	13345.7920000000	37016.4600000000	89699.7040000000	31170.9320000000	35544.7100000000	34561.7900000000	98.5676510000000	106.470200000000	118.956070000000	99.1515350000000	90.8318730000000	96.5148140000000	95.7021630000000	71.9910190000000	39.4605390000000	53.4465530000000	58.4415580000000	51.4485510000000	35.4645350000000	40.4595400000000	41.4585410000000	22.4775220000000
644.427580000000	192.337380000000	124.585430000000	199.503160000000	315.588350000000	183.362240000000	236.947500000000	200.234360000000	52	66	72	54	81	97	102	85	407337.570000000	33070.1100000000	13359.2940000000	37281.3330000000	96696.8930000000	31087.4970000000	54766.9530000000	37217.8010000000	100.274840000000	104.329240000000	111.956480000000	96.1109390000000	96.7125840000000	98.0379130000000	66.8763910000000	77.8325630000000	39.4605390000000	53.4465530000000	53.4465530000000	49.4505490000000	32.4675320000000	45.4545450000000	32.4675320000000	24.4755240000000
641.536130000000	192.818430000000	125.127860000000	199.573780000000	309.898410000000	182.392210000000	235.546290000000	201.128910000000	46	62	68	54	80	97	98	85	400943.240000000	33064.9500000000	13339.3690000000	37302.1300000000	92901.1910000000	30760.9340000000	53662.8000000000	37367.2080000000	102.550550000000	101.326190000000	111.837120000000	97.3642980000000	100.379270000000	95.8559420000000	69.1092420000000	75.0539780000000	41.4585410000000	49.4505490000000	54.4455540000000	50.4495500000000	39.4605390000000	41.4585410000000	25.4745250000000	20.4795200000000
624.832550000000	191.012950000000	121.371580000000	179.165720000000	306.733930000000	180.333830000000	232.696430000000	199.791820000000	48	60	69	53	84	99	99	85	384008.800000000	32350.7380000000	12740.6040000000	29186.3870000000	91092.1520000000	29568.7000000000	52377.2250000000	36416.0350000000	100.129220000000	101.061140000000	111.030980000000	154.957340000000	77.3236570000000	116.395170000000	88.0813750000000	79.3853750000000	40.4595400000000	50.4495500000000	56.4435560000000	96.4035960000000	28.4715280000000	59.4405590000000	37.4625370000000	21.4785210000000
612.865340000000	182.354470000000	115.988710000000	167.975650000000	303.142960000000	176.663910000000	213.552880000000	168.632100000000	48	65	66	54	86	104	99	88	368164.050000000	29541.8970000000	11439.5390000000	25978.9060000000	88543.2760000000	28785.5670000000	44282.5050000000	25535.4340000000	88.8103240000000	72.1005130000000	125.862900000000	70.6223240000000	85.4194110000000	112.420500000000	84.1801430000000	63.8077230000000	30.4695300000000	37.4625370000000	67.4325670000000	37.4625370000000	28.4715280000000	54.4455540000000	33.4665330000000	19.4805190000000
615.670480000000	179.273320000000	116.194050000000	164.784240000000	293.706790000000	176.722490000000	204.816720000000	162.569850000000	44	71	66	54	86	101	100	87	370853.610000000	27853.7200000000	11358.6100000000	24570.4720000000	83516.8630000000	28725.7950000000	40029.7920000000	23073.8310000000	104.540040000000	159.069610000000	116.567310000000	117.863040000000	100.436310000000	107.691170000000	55.1092180000000	105.989410000000	42.4575420000000	109.390610000000	62.4375620000000	62.4375620000000	39.4605390000000	53.4465530000000	35.4645350000000	50.4495500000000
616.522190000000	188.902670000000	118.899050000000	167.223310000000	311.051730000000	176.846990000000	180.741690000000	155.264690000000	45	72	70	58	85	102	102	94	371552.420000000	31741.8410000000	12044.8990000000	25469.9210000000	94996.4830000000	28704.8020000000	31261.1760000000	21217.9490000000	104.980210000000	66.2970740000000	112.577490000000	127.221130000000	82.9447150000000	111.942360000000	121.638320000000	114.814100000000	42.4575420000000	36.4635360000000	54.4455540000000	71.4285710000000	29.4705290000000	53.4465530000000	61.4385610000000	57.4425570000000
638.379430000000	198.643190000000	119.716910000000	183.424800000000	331.136000000000	178.543380000000	181.551530000000	156.091420000000	42	75	76	61	87	99	100	86	396240.900000000	35149.6710000000	12277.9480000000	31062.9130000000	106546.530000000	29231.9390000000	31352.7680000000	21227.3120000000	94.7472610000000	74.1320690000000	87.0520890000000	110.094280000000	80.3948340000000	102.581750000000	123.633150000000	112.938720000000	34.4655340000000	41.4585410000000	43.4565430000000	49.4505490000000	28.4715280000000	44.4555440000000	68.4315680000000	57.4425570000000
706.578750000000	203.308200000000	123.677190000000	184.602920000000	332.801570000000	182.223160000000	181.954390000000	166.149080000000	44	68	78	59	84	97	98	86	495289.690000000	37314.5720000000	13015.7100000000	31714.3450000000	107137.830000000	30623.0600000000	31509.9380000000	24494.1400000000	69.6175520000000	77.4099050000000	108.689830000000	105.362180000000	79.4952800000000	98.6624500000000	119.140380000000	100.692540000000	22.4775220000000	36.4635360000000	52.4475520000000	45.4545450000000	28.4715280000000	38.4615380000000	58.4415580000000	53.4465530000000
794.820820000000	215.278830000000	121.787710000000	185.027970000000	334.010780000000	194.729490000000	182.922230000000	174.093770000000	41	67	82	52	84	94	100	92	622458.280000000	41977.8540000000	12897.1340000000	31720.0120000000	108223.920000000	35235.7840000000	31805.6260000000	27047.1830000000	99.5183360000000	116.048390000000	81.7283650000000	101.483710000000	77.2923290000000	94.9885540000000	112.988380000000	108.440740000000	39.4605390000000	66.4335660000000	38.4615380000000	43.4565430000000	27.4725270000000	40.4595400000000	54.4455540000000	59.4405590000000
817.046040000000	203.859630000000	118.690550000000	181.532060000000	327.010120000000	195.368440000000	182.934930000000	174.750050000000	39	66	78	51	85	96	98	97	663054.040000000	37332.2690000000	11920.8250000000	30564.0540000000	103050.380000000	35570.4730000000	31923.5750000000	27314.8070000000	81.0415260000000	62.4623870000000	80.2132590000000	96.5286700000000	65.5520630000000	78.0419890000000	106.852350000000	104.607440000000	23.4765230000000	31.4685310000000	35.4645350000000	43.4565430000000	27.4725270000000	32.4675320000000	49.4505490000000	58.4415580000000
788.941500000000	196.159900000000	101.731720000000	165.804770000000	228.122930000000	192.573830000000	181.269500000000	172.554710000000	37	63	76	47	88	96	100	92	618373.780000000	34564.3590000000	8201.29990000000	25302.5080000000	48993.5170000000	34703.7900000000	31488.1780000000	26591.1240000000	77.6588400000000	76.1939890000000	101.090030000000	107.928510000000	107.333190000000	100.484160000000	122.070010000000	113.430460000000	17.4825170000000	30.4695300000000	41.4585410000000	51.4485510000000	44.4555440000000	47.4525470000000	60.4395600000000	62.4375620000000
744.573660000000	185.720130000000	97.6399840000000	160.588190000000	226.391530000000	192.673270000000	181.721300000000	165.887470000000	40	67	76	44	82	98	102	88	541125.950000000	30693.1680000000	7603.51400000000	23025.4990000000	48390.5710000000	34806.9390000000	31446.7410000000	24140.4210000000	68.5125640000000	112.573710000000	91.5402060000000	123.218220000000	108.969050000000	87.4862360000000	111.715330000000	113.911090000000	16.4835160000000	53.4465530000000	31.4685310000000	67.4325670000000	50.4495500000000	41.4585410000000	53.4465530000000	62.4375620000000
665.213900000000	175.942220000000	90.5268380000000	157.844650000000	227.520970000000	179.431150000000	180.272180000000	160.412370000000	43	65	78	43	87	103	105	86	437345.420000000	26863.6640000000	6008.85020000000	22603.2320000000	48496.5740000000	29717.0780000000	30915.1920000000	22361.3530000000	118.138770000000	101.465960000000	119.035120000000	125.480240000000	104.469310000000	97.9442220000000	174.620790000000	117.336650000000	55.4445550000000	49.4505490000000	56.4435560000000	65.4345650000000	43.4565430000000	41.4585410000000	129.370630000000	63.4365630000000
660.629260000000	173.516520000000	89.1175210000000	158.409000000000	248.919080000000	181.277550000000	185.621930000000	162.830140000000	43	63	81	43	88	103	108	89	428447.310000000	26080.7890000000	5954.49830000000	22610.2410000000	58505.3680000000	30430.2080000000	33167.7340000000	23242.3810000000	112.333160000000	111.478420000000	128.030690000000	128.588720000000	106.467500000000	111.514380000000	90.1220640000000	126.340100000000	51.4485510000000	55.4445550000000	59.4405590000000	69.4305690000000	42.4575420000000	58.4415580000000	44.4555440000000	68.4315680000000
724.114190000000	172.742550000000	92.1786850000000	159.688350000000	249.850920000000	184.140590000000	190.423620000000	163.723580000000	42	66	79	42	92	98	107	91	515490.710000000	25846.4980000000	6255.06710000000	22824.9810000000	59082.6950000000	31050.4550000000	34899.2790000000	23868.2660000000	91.4456660000000	107.910770000000	108.606720000000	124.958950000000	113.382820000000	96.0120030000000	116.242460000000	107.969280000000	28.4715280000000	54.4455540000000	45.4545450000000	66.4335660000000	46.4535460000000	41.4585410000000	53.4465530000000	53.4465530000000
735.196190000000	177.990310000000	98.6240010000000	188.230420000000	253.187670000000	185.395320000000	198.971570000000	186.447840000000	44	64	81	45	85	99	103	96	533074.860000000	27131.8670000000	7330.19590000000	32846.1630000000	60955.6680000000	31687.0410000000	37900.8190000000	31519.8500000000	89.5536830000000	103.255030000000	116.942350000000	92.0948040000000	101.797860000000	92.6673100000000	103.564860000000	72.5343180000000	28.4715280000000	53.4465530000000	58.4415580000000	47.4525470000000	40.4595400000000	42.4575420000000	40.4595400000000	30.4695300000000
746.455000000000	179.727970000000	100.450770000000	190.008300000000	259.768990000000	184.778680000000	207.828650000000	195.572080000000	44	70	86	49	80	96	101	97	549923.840000000	28725.1890000000	7816.59390000000	33625.8120000000	64252.1040000000	31472.2500000000	42114.6150000000	35435.9350000000	86.4787640000000	64.1225650000000	79.2823180000000	100.415060000000	69.6119700000000	94.3480390000000	78.5676560000000	84.3540630000000	28.4715280000000	43.4565430000000	35.4645350000000	51.4485510000000	26.4735260000000	42.4575420000000	23.4765230000000	28.4715280000000
720.258200000000	179.353380000000	101.006190000000	189.156850000000	257.654100000000	184.680370000000	225.748760000000	195.319870000000	44	65	84	46	77	90	100	93	507675.350000000	27806.1150000000	7818.94240000000	33423.3010000000	63388.6550000000	31558.8320000000	49212.2050000000	35175.9720000000	95.1534790000000	133.010850000000	86.1735030000000	92.7525770000000	98.1745270000000	93.5435380000000	69.9355580000000	97.5053520000000	38.4615380000000	69.4305690000000	38.4615380000000	47.4525470000000	35.4645350000000	43.4565430000000	27.4725270000000	39.4605390000000
691.046840000000	173.549580000000	95.4226260000000	159.319230000000	253.042840000000	157.137630000000	215.388010000000	197.209030000000	49	64	83	44	73	92	100	89	472141.880000000	26304.9370000000	7025.62470000000	22417.1800000000	60848.6980000000	21102.0520000000	44925.6730000000	35143.0120000000	99.4533060000000	114.153210000000	99.3191110000000	110.594760000000	94.7229280000000	99.7736810000000	75.7534230000000	67.8521160000000	38.4615380000000	54.4455540000000	53.4465530000000	50.4495500000000	33.4665330000000	53.4465530000000	31.4685310000000	20.4795200000000
677.522120000000	162.340200000000	89.2457400000000	148.153330000000	243.398330000000	130.001120000000	209.256870000000	168.790200000000	47	64	82	47	74	96	94	91	450931.200000000	22357.7310000000	5836.55930000000	19438.0410000000	54730.5100000000	14425.4850000000	42607.4500000000	26201.1350000000	100.272210000000	114.423380000000	72.9296770000000	120.038320000000	89.8371870000000	123.150400000000	76.1951790000000	99.6023840000000	38.4615380000000	54.4455540000000	39.4605390000000	65.4345650000000	32.4675320000000	58.4415580000000	27.4725270000000	43.4565430000000
677.861330000000	161.664450000000	90.7713990000000	147.188510000000	226.504650000000	129.065870000000	158.158540000000	164.462160000000	48	69	88	48	81	97	100	89	451638.950000000	22065.9260000000	5981.75220000000	19175.0780000000	48193.1950000000	14028.7740000000	23367.6270000000	23591.2390000000	101.652160000000	119.300520000000	86.2219820000000	109.023030000000	107.805860000000	120.045040000000	101.588400000000	99.8143290000000	38.4615380000000	60.4395600000000	51.4485510000000	53.4465530000000	39.4605390000000	56.4435560000000	52.4475520000000	41.4585410000000
679.974990000000	164.443020000000	100.154300000000	147.479220000000	231.230510000000	129.701550000000	156.268550000000	160.387250000000	49	73	94	59	79	97	102	95	453787.540000000	23156.3760000000	7796.35860000000	19459.3310000000	50607.2130000000	14139.4830000000	23080.6540000000	22808.6550000000	103.563820000000	121.099680000000	121.333230000000	129.129030000000	96.1466150000000	105.257560000000	105.242470000000	119.566090000000	39.4605390000000	62.4375620000000	67.4325670000000	70.4295700000000	34.4655340000000	53.4465530000000	52.4475520000000	66.4335660000000
686.254300000000	171.313450000000	105.172760000000	158.676360000000	288.782990000000	130.323230000000	157.461440000000	159.649530000000	48	75	96	62	74	96	102	96	462070.190000000	25162.4420000000	8932.45960000000	22594.6150000000	80241.0440000000	14286.8510000000	23154.8010000000	22623.4840000000	92.2900890000000	122.031270000000	117.458960000000	88.2543520000000	67.6061900000000	78.0750620000000	89.0032040000000	116.911830000000	28.4715280000000	56.4435560000000	58.4415580000000	44.4555440000000	25.4745250000000	53.4465530000000	37.4625370000000	63.4365630000000
690.790220000000	176.798040000000	113.744140000000	168.119080000000	288.712040000000	131.982160000000	157.559390000000	162.292840000000	48	70	98	60	75	95	100	100	469428.140000000	27018.6570000000	10611.3740000000	26115.9000000000	80084.7710000000	14519.4690000000	23320.3740000000	23423.5480000000	88.9698080000000	99.2027550000000	113.044690000000	78.1454860000000	73.8129620000000	100.360220000000	116.800370000000	118.879840000000	26.4735260000000	41.4585410000000	54.4455540000000	41.4585410000000	26.4735260000000	54.4455540000000	54.4455540000000	70.4295700000000
710.319960000000	186.568670000000	115.518100000000	175.438480000000	288.623710000000	140.560360000000	158.232080000000	164.338130000000	51	65	98	59	76	94	103	105	492878.630000000	30922.7400000000	11295.6230000000	28382.4420000000	80192.6960000000	17086.0220000000	23516.8000000000	23821.0870000000	92.6944340000000	59.9119140000000	66.2318290000000	109.340710000000	69.4186680000000	79.3626150000000	115.140520000000	115.209960000000	28.4715280000000	26.4735260000000	30.4695300000000	51.4485510000000	25.4745250000000	33.4665330000000	54.4455540000000	61.4385610000000
718.600710000000	179.614090000000	114.729150000000	173.089370000000	269.462820000000	140.523710000000	158.433900000000	164.455670000000	48	65	96	54	77	94	104	106	510123.220000000	27719.6590000000	10895.8460000000	27539.5370000000	67513.4100000000	16980.4680000000	23539.6720000000	23783.3370000000	75.7250640000000	110.737950000000	99.1065630000000	96.8514580000000	86.3523500000000	87.7223180000000	109.321960000000	126.246240000000	18.4815180000000	48.4515480000000	43.4565430000000	43.4565430000000	29.4705290000000	35.4645350000000	53.4465530000000	70.4295700000000
701.332150000000	168.386980000000	114.070650000000	155.745390000000	243.066370000000	138.395430000000	157.507320000000	164.287760000000	48	67	96	53	79	96	106	100	486699.720000000	24836.6690000000	10693.7660000000	21961.4780000000	56138.1750000000	16691.3290000000	23393.7190000000	23763.2900000000	79.6896650000000	90.2445630000000	110.073930000000	103.584720000000	104.787320000000	68.4528410000000	115.289400000000	114.418950000000	21.4785210000000	40.4595400000000	50.4495500000000	53.4465530000000	43.4565430000000	32.4675320000000	56.4435560000000	61.4385610000000
634.287700000000	162.476010000000	110.270420000000	154.374090000000	240.966200000000	135.960640000000	157.025460000000	156.882180000000	47	66	94	48	80	101	112	94	389019.520000000	22427.3360000000	10100.1540000000	21241.2470000000	55364.2600000000	15838.9100000000	23156.7970000000	21196.9350000000	100.354170000000	74.7631200000000	78.7192730000000	122.700130000000	106.380640000000	75.1861270000000	124.895450000000	154.428730000000	33.4665330000000	29.4705290000000	41.4585410000000	68.4315680000000	43.4565430000000	44.4555440000000	67.4325670000000	123.376620000000
517.920700000000	145.075470000000	108.112690000000	152.922710000000	239.501950000000	117.136330000000	156.607270000000	145.979810000000	53	64	86	48	80	100	116	88	262751.080000000	17059.9430000000	9402.69300000000	21048.3360000000	54321.7090000000	11117.4610000000	23037.7470000000	18026.7240000000	97.9361060000000	97.4658600000000	120.627490000000	122.901930000000	101.388100000000	54.9536820000000	122.832000000000	101.034940000000	37.4625370000000	46.4535460000000	61.4385610000000	68.4315680000000	43.4565430000000	46.4535460000000	64.4355640000000	47.4525470000000
488.236630000000	143.050650000000	106.363550000000	153.458190000000	244.034370000000	117.404240000000	158.151870000000	146.756370000000	56	63	88	44	80	100	127	91	224258.180000000	16337.2420000000	9244.01480000000	21068.1030000000	56143.4330000000	11261.3070000000	23643.7830000000	18224.5710000000	41.9699220000000	116.691010000000	123.005320000000	123.188030000000	111.299860000000	109.275830000000	124.111880000000	109.296370000000	15.4845150000000	61.4385610000000	55.4445550000000	68.4315680000000	48.4515480000000	53.4465530000000	55.4445550000000	49.4505490000000
487.608770000000	141.300980000000	108.845670000000	169.433510000000	247.532570000000	121.330460000000	162.906710000000	148.956960000000	58	64	89	45	78	98	125	98	226916.390000000	16257.5690000000	9483.84340000000	26690.5510000000	57852.5620000000	11870.8210000000	25013.2990000000	19303.9590000000	79.0376470000000	113.396570000000	110.172960000000	110.344770000000	107.037200000000	90.3905310000000	112.018490000000	100.347540000000	25.4745250000000	53.4465530000000	54.4455540000000	54.4455540000000	44.4555440000000	49.4505490000000	54.4455540000000	37.4625370000000
490.062820000000	153.958480000000	111.540500000000	187.238150000000	251.003940000000	120.538860000000	167.599410000000	168.387310000000	57	62	99	49	77	100	124	106	230141.810000000	19192.8720000000	10188.2590000000	32570.6960000000	60180.9730000000	11716.8090000000	26323.0310000000	24799.0570000000	91.4015890000000	79.3195560000000	82.8174940000000	103.227870000000	96.5524070000000	62.8253770000000	80.4199360000000	62.7693560000000	29.4705290000000	40.4595400000000	39.4605390000000	53.4465530000000	41.4585410000000	39.4605390000000	37.4625370000000	24.4755240000000
492.639130000000	156.372180000000	112.422330000000	189.130000000000	254.907110000000	119.940880000000	172.097690000000	168.558810000000	58	64	99	55	76	98	118	105	232098.660000000	20786.9390000000	10371.2310000000	33278.6760000000	61615.6250000000	11761.3100000000	28334.9110000000	25625.1280000000	90.3296680000000	104.837410000000	111.801710000000	99.3814740000000	77.3284640000000	81.1378020000000	66.2221350000000	86.0877720000000	29.4705290000000	53.4465530000000	55.4445550000000	52.4475520000000	29.4705290000000	48.4515480000000	38.4615380000000	28.4715280000000
481.785290000000	158.210080000000	112.857450000000	188.800290000000	234.420600000000	116.893620000000	168.755840000000	168.504610000000	63	64	98	52	80	97	116	105	220339.860000000	20974.3020000000	10357.7520000000	33222.9180000000	52143.2250000000	10915.8930000000	26606.3270000000	25212.3480000000	91.0101200000000	100.148700000000	114.546860000000	98.7484010000000	89.2262160000000	84.0616590000000	95.8056220000000	92.2693400000000	33.4665330000000	47.4525470000000	56.4435560000000	52.4475520000000	33.4665330000000	45.4545450000000	37.4625370000000	30.4695300000000
370.020430000000	158.040600000000	110.517130000000	187.758640000000	234.108560000000	112.313640000000	163.036710000000	167.071590000000	68	62	97	52	74	102	119	113	127729.910000000	20887.4580000000	10058.2130000000	32993.2740000000	51699.2300000000	10036.8180000000	24854.1110000000	24561.6020000000	87.8494130000000	101.797860000000	109.076750000000	95.0076580000000	109.807040000000	85.2822820000000	103.093400000000	71.4475380000000	34.4655340000000	49.4505490000000	53.4465530000000	50.4495500000000	47.4525470000000	52.4475520000000	50.4495500000000	20.4795200000000
348.462770000000	151.751670000000	104.802670000000	159.183920000000	230.056060000000	107.201240000000	152.134090000000	144.868710000000	66	62	91	51	78	105	121	110	110320.400000000	19434.0740000000	8928.98500000000	23051.9570000000	49777.4670000000	8977.70380000000	21769.3530000000	17787.9020000000	113.634410000000	104.207150000000	156.619550000000	107.308650000000	89.9831830000000	112.306630000000	97.9655060000000	96.4651450000000	56.4435560000000	53.4465530000000	106.393610000000	55.4445550000000	31.4685310000000	54.4455540000000	48.4515480000000	39.4605390000000
323.740750000000	149.006540000000	102.769740000000	157.517100000000	220.870700000000	107.046360000000	138.593820000000	127.597640000000	68	62	90	50	82	104	121	109	93521.0510000000	17833.0510000000	8451.98290000000	22262.1820000000	45837.7120000000	8776.59050000000	17283.1730000000	12960.5900000000	98.7511870000000	55.1279850000000	122.860980000000	118.903580000000	74.5896080000000	89.9826650000000	92.0361100000000	102.305320000000	33.4665330000000	27.4725270000000	74.4255740000000	64.4355640000000	26.4735260000000	53.4465530000000	49.4505490000000	40.4595400000000
325.589840000000	150.846810000000	107.965420000000	157.444350000000	227.379740000000	106.014740000000	102.141810000000	125.425600000000	73	67	90	61	79	108	124	118	94584.1670000000	19082.3490000000	9426.65600000000	22376.4870000000	49314.4670000000	8594.18810000000	9016.55900000000	12417.6430000000	103.014220000000	115.738580000000	92.3002770000000	122.727780000000	105.439570000000	108.979470000000	117.747480000000	124.302370000000	42.4575420000000	59.4405590000000	55.4445550000000	68.4315680000000	48.4515480000000	54.4455540000000	54.4455540000000	61.4385610000000
391.769000000000	191.159680000000	111.582050000000	162.545800000000	251.505690000000	107.339720000000	103.228180000000	120.662370000000	69	71	98	66	79	106	120	116	136780.780000000	31800.6570000000	10269.3340000000	23829.5850000000	60133.1940000000	8785.06140000000	9024.69300000000	11483.1910000000	134.950090000000	60.2347530000000	111.153450000000	119.446110000000	78.5961670000000	110.526360000000	135.461880000000	116.171830000000	75.4245750000000	38.4615380000000	67.4325670000000	61.4385610000000	27.4725270000000	55.4445550000000	64.4355640000000	58.4415580000000
496.899400000000	216.254450000000	122.738580000000	168.778310000000	254.245950000000	110.611510000000	106.165360000000	173.859320000000	68	70	99	64	77	104	120	117	241086.140000000	43004.7580000000	12803.8550000000	26270.1020000000	61356.9740000000	9591.22240000000	9714.53180000000	26584.2130000000	69.9943800000000	59.4656460000000	94.7397730000000	102.432760000000	74.1337920000000	93.5259510000000	104.187270000000	98.7636820000000	17.4825170000000	27.4725270000000	57.4425570000000	48.4515480000000	26.4735260000000	54.4455540000000	53.4465530000000	48.4515480000000
580.520870000000	221.537090000000	133.556670000000	171.597870000000	255.358720000000	117.651990000000	106.389820000000	173.528090000000	62	66	90	61	72	100	115	120	318060.410000000	44682.6720000000	15949.9620000000	26949.8310000000	61906.9340000000	11303.2960000000	9822.03810000000	26973.3970000000	68.3110790000000	42.9612200000000	70.5716950000000	105.582680000000	73.4437980000000	80.8591550000000	117.215880000000	106.564430000000	14.4855140000000	30.4695300000000	33.4665330000000	50.4495500000000	26.4735260000000	42.4575420000000	54.4455540000000	55.4445550000000
626.649310000000	222.683370000000	131.853810000000	172.303520000000	251.894450000000	117.998650000000	106.662960000000	173.502550000000	61	66	84	53	75	97	114	117	384116.810000000	45537.6370000000	15046.2290000000	27066.9840000000	60054.2270000000	11266.5890000000	9770.67870000000	26863.3980000000	78.8840500000000	55.9314170000000	102.393450000000	92.1130660000000	91.0961400000000	89.3686900000000	94.9287370000000	115.502370000000	20.4795200000000	27.4725270000000	54.4455540000000	43.4565430000000	31.4685310000000	43.4565430000000	47.4525470000000	60.4395600000000
626.405460000000	217.618650000000	127.972130000000	163.497140000000	180.674520000000	116.928430000000	104.785130000000	173.947320000000	62	65	85	54	84	96	122	110	381872.480000000	43865.0480000000	14190.5260000000	24382.5200000000	29652.1840000000	11151.4130000000	9570.20300000000	26763.6080000000	30.7124810000000	104.778230000000	85.7592110000000	89.7304200000000	98.4896170000000	93.7064200000000	124.067910000000	118.330520000000	14.4855140000000	45.4545450000000	35.4645350000000	32.4675320000000	32.4675320000000	47.4525470000000	59.4405590000000	62.4375620000000
625.836760000000	214.014600000000	120.862760000000	153.537560000000	179.823480000000	116.056470000000	104.732790000000	171.057030000000	60	62	82	59	78	93	121	102	378989.670000000	42024.5650000000	12518.9170000000	20824.9590000000	29413.8320000000	11039.0540000000	9377.06350000000	25908.0950000000	74.4141620000000	92.0360430000000	94.9961960000000	87.9526910000000	114.227690000000	95.9111210000000	140.125690000000	119.635910000000	20.4795200000000	33.4665330000000	45.4545450000000	41.4585410000000	49.4505490000000	45.4545450000000	84.4155840000000	66.4335660000000
599.798350000000	205.193340000000	118.691890000000	144.665920000000	179.323880000000	106.140730000000	104.443650000000	170.087470000000	62	60	82	57	80	93	121	97	352776.720000000	37964.6930000000	11727.9840000000	18491.7430000000	28982.9350000000	8668.35200000000	9307.61100000000	25629.3690000000	87.2720910000000	111.381040000000	92.9965760000000	123.330350000000	121.435670000000	134.301170000000	112.019390000000	126.850310000000	24.4755240000000	54.4455540000000	46.4535460000000	65.4345650000000	55.4445550000000	72.4275720000000	54.4455540000000	71.4285710000000
592.776820000000	202.150950000000	116.085540000000	144.380130000000	182.977490000000	107.318850000000	105.271270000000	170.788750000000	65	59	80	56	79	89	120	89	337952.920000000	37247.8380000000	11351.1820000000	18387.7600000000	30286.1990000000	8970.27050000000	9616.79670000000	25812.2410000000	107.003320000000	115.552260000000	122.407940000000	127.299420000000	112.882150000000	129.331930000000	72.9130470000000	136.874390000000	42.4575420000000	59.4405590000000	67.4325670000000	70.4295700000000	49.4505490000000	63.4365630000000	36.4635360000000	83.4165830000000
591.916250000000	202.168000000000	116.243970000000	144.983680000000	193.457270000000	114.341020000000	107.889400000000	171.887450000000	65	56	72	56	75	86	118	88	337597.090000000	36788.3110000000	11330.9910000000	18536.8030000000	34274.7290000000	10316.5370000000	10134.8100000000	26533.8400000000	98.7355710000000	116.316340000000	123.404010000000	133.284770000000	97.0981990000000	66.6478290000000	95.7030460000000	115.703800000000	34.4655340000000	58.4415580000000	69.4305690000000	72.4275720000000	46.4535460000000	45.4545450000000	47.4525470000000	61.4385610000000
592.080160000000	202.421120000000	116.083340000000	145.763040000000	194.530300000000	114.315880000000	110.819410000000	186.702050000000	67	58	74	60	80	82	111	90	339021.300000000	36854.8330000000	11243.1360000000	18775.4200000000	35091.7310000000	10274.9990000000	10590.2020000000	31423.3650000000	98.1620130000000	116.081250000000	121.963630000000	126.575480000000	97.8359970000000	95.4983980000000	101.304560000000	94.9273800000000	34.4655340000000	57.4425570000000	64.4355640000000	70.4295700000000	35.4645350000000	53.4465530000000	52.4475520000000	34.4655340000000
593.083790000000	201.962610000000	116.334010000000	145.939100000000	198.162150000000	113.380600000000	110.355410000000	184.941580000000	60	62	78	64	81	84	108	102	338965.930000000	36829.6420000000	11253.9830000000	18802.7930000000	36110.9970000000	10132.9880000000	10708.8110000000	31234.0320000000	100.086400000000	114.141010000000	121.605810000000	123.749030000000	102.199890000000	72.1211160000000	97.0473890000000	89.5716610000000	35.4645350000000	56.4435560000000	67.4325670000000	68.4315680000000	37.4625370000000	44.4555440000000	51.4485510000000	30.4695300000000
585.288770000000	201.675260000000	116.123470000000	145.547130000000	193.457880000000	111.730550000000	108.176960000000	184.020510000000	56	59	74	64	80	85	96	89	331858.440000000	36735.7090000000	11174.0330000000	18758.7320000000	34494.8260000000	9699.25970000000	10110.4330000000	30761.8460000000	102.742170000000	114.996970000000	117.617260000000	121.283920000000	96.0948120000000	76.9043220000000	105.857490000000	96.5708840000000	37.4625370000000	57.4425570000000	65.4345650000000	66.4335660000000	34.4655340000000	43.4565430000000	52.4475520000000	37.4625370000000
580.323940000000	202.012130000000	113.587120000000	135.467760000000	191.580620000000	106.872990000000	102.736260000000	182.030400000000	56	54	71	63	79	88	95	82	325489.850000000	36582.7530000000	10842.7890000000	15540.2880000000	33620.5300000000	8766.01390000000	8932.43220000000	29716.9040000000	101.912810000000	109.342380000000	123.908700000000	159.457620000000	114.990600000000	99.2420030000000	83.7584810000000	102.720850000000	35.4645350000000	53.4465530000000	67.4325670000000	86.4135860000000	53.4465530000000	53.4465530000000	45.4545450000000	42.4575420000000
577.510420000000	192.261560000000	110.676080000000	98.8047740000000	186.668810000000	105.490510000000	94.1553180000000	165.080810000000	52	49	59	59	85	86	94	75	321730.420000000	33324.8410000000	10040.6460000000	7368.54520000000	31474.8930000000	8556.93530000000	7569.03490000000	24400.3190000000	99.2268960000000	116.842680000000	137.890950000000	146.163150000000	98.0598350000000	56.3986930000000	51.4419260000000	130.085580000000	34.4655340000000	57.4425570000000	83.4165830000000	86.4135860000000	36.4635360000000	39.4605390000000	27.4725270000000	71.4285710000000
575.281980000000	189.825180000000	109.660870000000	95.0798450000000	178.578510000000	103.430760000000	84.7483970000000	163.996880000000	46	47	55	52	79	87	96	77	319475.530000000	31670.0600000000	9806.73830000000	6523.09690000000	29001.6120000000	8049.29260000000	5466.08270000000	23486.5180000000	99.4056700000000	121.595030000000	121.214180000000	123.061960000000	107.258060000000	96.3597300000000	62.8417860000000	128.742540000000	34.4655340000000	61.4385610000000	64.4355640000000	64.4355640000000	43.4565430000000	53.4465530000000	33.4665330000000	73.4265730000000
575.146380000000	188.092530000000	109.358820000000	94.8406530000000	178.108090000000	103.574030000000	80.1746700000000	161.884170000000	40	48	56	52	74	84	98	70	319232.640000000	31468.7890000000	9794.20890000000	6513.41900000000	28457.4690000000	8000.58870000000	5020.59330000000	23087.5320000000	99.1898940000000	115.092310000000	123.999850000000	124.211500000000	110.929200000000	119.214850000000	104.531810000000	120.071390000000	34.4655340000000	56.4435560000000	68.4315680000000	64.4355640000000	45.4545450000000	55.4445550000000	54.4455540000000	63.4365630000000
574.693270000000	188.357100000000	109.292480000000	94.7615410000000	176.730320000000	103.748130000000	80.8021140000000	161.970140000000	34	46	56	52	70	86	100	58	318242.110000000	31450.6950000000	9779.09120000000	6513.90980000000	28182.7700000000	8035.79560000000	5023.88570000000	23006.8440000000	99.1992770000000	118.842720000000	123.123310000000	127.376950000000	109.200530000000	105.971800000000	93.4349970000000	117.998520000000	34.4655340000000	60.4395600000000	67.4325670000000	70.4295700000000	45.4545450000000	54.4455540000000	54.4455540000000	62.4375620000000
574.670180000000	188.270020000000	109.398980000000	94.6707320000000	176.666260000000	103.808030000000	80.9552330000000	161.069590000000	34	44	56	48	63	86	100	56	318175.580000000	31394.9970000000	9764.81100000000	6500.26310000000	28075.2250000000	8050.99040000000	5117.90240000000	22773.8790000000	99.2692530000000	117.677090000000	116.539450000000	125.673650000000	103.695710000000	94.7542200000000	85.8474080000000	118.731300000000	35.4645350000000	59.4405590000000	59.4405590000000	64.4355640000000	40.4595400000000	53.4465530000000	53.4465530000000	62.4375620000000
573.623600000000	187.953360000000	108.893080000000	94.0925690000000	177.021960000000	103.137760000000	81.2417550000000	160.870110000000	30	38	48	44	64	90	102	56	317346.740000000	31264.0880000000	9635.02480000000	6405.80480000000	28232.3390000000	8008.25790000000	5154.20010000000	22762.1390000000	100.897960000000	116.332260000000	120.315460000000	119.652190000000	106.997880000000	122.279640000000	110.742300000000	118.785290000000	35.4645350000000	57.4425570000000	65.4345650000000	60.4395600000000	45.4545450000000	57.4425570000000	54.4455540000000	62.4375620000000
572.035820000000	184.175300000000	103.735330000000	93.6471070000000	167.975390000000	103.340180000000	81.9247330000000	161.144450000000	23	31	42	33	63	92	104	42	315647.590000000	29552.6420000000	8569.46180000000	6274.32620000000	24116.3400000000	7962.44170000000	5178.46570000000	22692.5950000000	102.401240000000	111.756580000000	136.777120000000	115.737240000000	146.545750000000	128.853800000000	113.274420000000	115.264720000000	37.4625370000000	52.4475520000000	72.4275720000000	54.4455540000000	89.4105890000000	64.4355640000000	54.4455540000000	60.4395600000000
425.042570000000	225.131290000000	93.3334680000000	156.953280000000	136.555710000000	140.115960000000	219.842710000000	99.9122350000000	53	58	70	62	56	54	104	50	170388.610000000	46840.6280000000	6724.46110000000	22341.1800000000	15825.5410000000	17241.3500000000	47153.8460000000	7194.41900000000	103.846650000000	95.2449340000000	110.894690000000	120.518720000000	97.5806090000000	102.608280000000	112.580920000000	127.580160000000	42.4575420000000	33.4665330000000	47.4525470000000	62.4375620000000	36.4635360000000	41.4585410000000	50.4495500000000	64.4355640000000
426.357530000000	229.277310000000	94.5164660000000	157.513740000000	136.476950000000	140.192790000000	219.915630000000	100.103670000000	50	63	75	62	59	56	100	50	171146.400000000	49215.8200000000	6896.66610000000	22433.1620000000	15827.5550000000	17246.3400000000	47165.1680000000	7195.22030000000	105.506720000000	107.505430000000	101.581560000000	108.681370000000	96.5780890000000	103.580460000000	111.210180000000	125.941340000000	42.4575420000000	51.4485510000000	48.4515480000000	55.4445550000000	36.4635360000000	41.4585410000000	50.4495500000000	62.4375620000000
427.637470000000	225.389220000000	98.9887180000000	158.886740000000	136.503390000000	139.973070000000	219.640710000000	100.061630000000	49	67	77	65	59	56	94	50	172204.990000000	47493.5470000000	7733.27240000000	22978.1550000000	15821.4780000000	17238.1910000000	47081.9010000000	7199.43230000000	107.430910000000	85.6944530000000	75.2610370000000	125.818110000000	104.154140000000	103.496720000000	113.207630000000	127.382900000000	43.4565430000000	32.4675320000000	39.4605390000000	69.4305690000000	42.4575420000000	42.4575420000000	51.4485510000000	65.4345650000000
427.849320000000	227.174860000000	97.6437910000000	158.749440000000	137.573270000000	140.397510000000	221.219960000000	100.279750000000	54	70	79	72	56	55	91	50	173066.220000000	48294.7220000000	7586.22470000000	23039.5910000000	16002.7470000000	17333.9700000000	48037.4360000000	7195.58920000000	101.644490000000	85.6056250000000	85.9028070000000	108.813730000000	100.129250000000	101.609520000000	104.813200000000	130.063530000000	39.4605390000000	31.4685310000000	32.4675320000000	51.4485510000000	38.4615380000000	41.4585410000000	45.4545450000000	66.4335660000000
428.824600000000	225.146290000000	98.8639420000000	160.658210000000	140.782040000000	141.684260000000	222.730300000000	100.700240000000	50	68	73	72	55	56	87	52	174002.740000000	47512.0900000000	7815.56830000000	23569.4820000000	16817.8660000000	17477.5190000000	48321.4140000000	7236.63860000000	96.6626180000000	67.2494830000000	102.450040000000	70.0924760000000	86.9408700000000	100.703110000000	117.605480000000	129.610640000000	37.4625370000000	27.4725270000000	50.4495500000000	33.4665330000000	29.4705290000000	36.4635360000000	57.4425570000000	64.4355640000000
429.554810000000	225.571240000000	94.3794640000000	160.535090000000	140.873930000000	139.819770000000	226.359690000000	103.404040000000	53	69	72	72	56	57	86	53	174537.180000000	47180.4460000000	7059.45000000000	23942.5660000000	17295.5590000000	17355.5530000000	50079.7340000000	8056.96370000000	97.0012400000000	96.8178240000000	73.2898200000000	87.6241360000000	58.2828840000000	89.8916050000000	37.4799040000000	122.354850000000	35.4645350000000	39.4605390000000	35.4645350000000	34.4655340000000	22.4775220000000	24.4755240000000	28.4715280000000	70.4295700000000
431.190010000000	214.575090000000	94.0246840000000	176.397110000000	142.718370000000	158.722950000000	232.239970000000	118.113590000000	51	68	75	65	55	55	85	52	176213.930000000	41929.2070000000	6961.16260000000	29232.0330000000	16969.1150000000	22304.3130000000	52939.7060000000	10993.2830000000	86.8525680000000	98.9931430000000	95.0985380000000	70.8304150000000	99.8835100000000	69.3245120000000	123.655060000000	71.6720230000000	33.4665330000000	37.4625370000000	37.4625370000000	32.4675320000000	37.4625370000000	20.4795200000000	63.4365630000000	37.4625370000000
394.539290000000	211.258110000000	93.7734730000000	191.983140000000	132.642080000000	143.206260000000	231.664460000000	115.982340000000	51	70	74	63	54	58	81	51	145058.220000000	41097.3750000000	6672.89630000000	34624.4320000000	14670.5810000000	18289.5530000000	52452.1520000000	10420.8400000000	137.696270000000	103.847510000000	96.1492500000000	109.915090000000	107.056570000000	61.3374470000000	126.117810000000	92.1881000000000	77.4225770000000	41.4585410000000	36.4635360000000	48.4515480000000	46.4535460000000	24.4755240000000	68.4315680000000	42.4575420000000
415.634800000000	212.696170000000	92.8439020000000	191.698230000000	131.233010000000	142.314880000000	231.121670000000	114.672910000000	44	68	73	54	62	61	80	50	160048.210000000	41544.8240000000	6622.29060000000	34477.7700000000	14502.8130000000	17911.7870000000	52236.4970000000	10204.3340000000	71.2396000000000	102.222480000000	88.8947420000000	113.975620000000	110.256580000000	94.4410980000000	110.494250000000	111.352200000000	21.4785210000000	36.4635360000000	36.4635360000000	53.4465530000000	50.4495500000000	31.4685310000000	49.4505490000000	52.4475520000000
414.753650000000	211.714220000000	92.9068070000000	191.594170000000	131.570190000000	143.053670000000	231.016690000000	113.948670000000	44	72	70	56	64	62	85	52	163361.510000000	40936.8610000000	6614.44660000000	34469.6070000000	14465.5220000000	18159.9080000000	52256.1570000000	10132.3300000000	79.3955290000000	90.9356050000000	93.0631260000000	116.028690000000	108.326960000000	96.0723450000000	109.442320000000	117.608340000000	26.4735260000000	38.4615380000000	35.4645350000000	54.4455540000000	47.4525470000000	34.4655340000000	48.4515480000000	57.4425570000000
419.517430000000	209.592120000000	90.3676130000000	191.682620000000	131.735770000000	143.435200000000	231.313700000000	113.895740000000	42	73	76	64	64	62	84	52	164190.180000000	40293.2100000000	6298.91570000000	34548.4630000000	14485.6130000000	18135.9810000000	52387.3010000000	10140.8950000000	93.2678700000000	109.808320000000	69.7377450000000	115.171820000000	108.394450000000	96.4642900000000	106.924370000000	128.764720000000	31.4685310000000	44.4555440000000	22.4775220000000	54.4455540000000	48.4515480000000	35.4645350000000	46.4535460000000	62.4375620000000
415.981160000000	208.334910000000	91.5218050000000	191.807160000000	132.443800000000	143.982170000000	233.227990000000	116.094130000000	45	70	77	66	62	63	75	47	162711.810000000	39521.7300000000	6388.47980000000	34556.9840000000	14566.4790000000	18366.6070000000	53264.1630000000	10430.8740000000	93.2072550000000	97.6563010000000	103.784700000000	116.090480000000	103.487720000000	99.9519560000000	101.586470000000	108.796240000000	32.4675320000000	38.4615380000000	37.4625370000000	54.4455540000000	38.4615380000000	34.4655340000000	45.4545450000000	54.4455540000000
416.002030000000	208.051040000000	90.8276190000000	191.784380000000	131.096600000000	145.210660000000	231.708640000000	114.910980000000	45	70	78	66	60	62	82	52	164754.340000000	39608.3820000000	6416.51770000000	34550.9250000000	14502.2490000000	18754.2490000000	52640.6600000000	10356.4920000000	74.4448630000000	96.3245650000000	88.2515610000000	116.179690000000	44.4179620000000	74.9666300000000	65.9090160000000	85.8203010000000	25.4745250000000	38.4615380000000	29.4705290000000	55.4445550000000	28.4715280000000	27.4725270000000	36.4635360000000	41.4585410000000
415.501660000000	208.741700000000	89.8225040000000	191.824390000000	132.286300000000	145.849620000000	233.539020000000	113.925760000000	46	66	84	66	60	64	78	54	163393.520000000	40378.6630000000	5945.85830000000	34546.9800000000	14458.0240000000	18852.9410000000	53297.3360000000	10112.6850000000	48.3023170000000	55.1388100000000	36.9299320000000	116.181420000000	80.6615870000000	85.3704130000000	66.9880720000000	143.494440000000	17.4825170000000	16.4835160000000	25.4745250000000	54.4455540000000	38.4615380000000	29.4705290000000	30.4695300000000	73.4265730000000
416.953420000000	208.350640000000	94.7396840000000	194.225710000000	142.947020000000	147.097770000000	235.145680000000	118.095700000000	49	67	82	72	62	65	76	52	161218.480000000	39041.6150000000	6865.71440000000	35214.8980000000	17193.4000000000	19389.1280000000	54226.2280000000	10958.0940000000	88.1455990000000	99.5998880000000	85.3758620000000	93.0064110000000	90.2623250000000	88.8508490000000	33.3227200000000	89.2527790000000	35.4645350000000	37.4625370000000	37.4625370000000	33.4665330000000	40.4595400000000	35.4645350000000	23.4765230000000	47.4525470000000
396.238260000000	204.797080000000	94.5220490000000	187.749430000000	143.730090000000	131.134910000000	230.226650000000	116.905140000000	51	65	80	78	63	63	75	53	148679.890000000	38598.5210000000	7004.62360000000	32823.8870000000	17921.4070000000	14797.1970000000	51510.9760000000	10710.5080000000	55.7349800000000	73.5032920000000	50.5149090000000	77.4748550000000	148.798340000000	81.1336160000000	63.7505840000000	97.3781050000000	22.4775220000000	23.4765230000000	28.4715280000000	47.4525470000000	95.4045950000000	21.4785210000000	19.4805190000000	53.4465530000000
306.594330000000	208.406830000000	95.0666720000000	173.434280000000	150.232920000000	136.712490000000	222.798260000000	120.770070000000	51	65	81	80	64	65	74	58	83073.3910000000	39002.9440000000	7167.43510000000	27935.3370000000	19892.6920000000	16528.6930000000	48993.7670000000	11454.0100000000	53.2466080000000	66.7699540000000	132.396400000000	63.3196380000000	85.7246140000000	101.848470000000	68.3540300000000	105.510620000000	32.4675320000000	19.4805190000000	75.4245750000000	28.4715280000000	38.4615380000000	36.4635360000000	25.4745250000000	47.4525470000000
296.744860000000	187.349210000000	96.3648820000000	172.566600000000	150.866490000000	138.289410000000	210.509070000000	114.014380000000	50	66	80	72	62	64	76	59	77280.0310000000	31517.1260000000	7482.27330000000	27488.6020000000	19912.9760000000	16620.2460000000	42690.0130000000	10189.9890000000	107.748210000000	52.3124050000000	85.2322520000000	114.999550000000	89.9242510000000	81.8761670000000	70.4793330000000	120.266030000000	47.4525470000000	20.4795200000000	38.4615380000000	55.4445550000000	37.4625370000000	28.4715280000000	44.4555440000000	64.4355640000000
296.836270000000	187.154400000000	96.3964250000000	171.968100000000	206.250090000000	137.347250000000	199.291350000000	116.962700000000	52	62	76	69	65	69	80	63	77547.3620000000	31345.3440000000	7327.50020000000	27341.6250000000	40613.0480000000	16503.4900000000	38659.2510000000	10684.9570000000	107.210700000000	93.1119480000000	92.8873190000000	116.385690000000	73.2824220000000	78.4681900000000	104.476100000000	127.358920000000	46.4535460000000	32.4675320000000	39.4605390000000	54.4455540000000	37.4625370000000	26.4735260000000	41.4585410000000	68.4315680000000
297.263350000000	187.590310000000	96.0250900000000	172.149340000000	211.730890000000	137.431340000000	198.984670000000	117.044250000000	52	60	74	72	61	64	83	70	77527.2080000000	31372.1120000000	7299.71790000000	27348.8370000000	41811.1800000000	16485.7970000000	38453.9650000000	10782.5280000000	107.473420000000	95.8776900000000	101.468760000000	119.257250000000	86.5694500000000	102.613380000000	105.520300000000	114.269660000000	47.4525470000000	33.4665330000000	43.4565430000000	57.4425570000000	30.4695300000000	38.4615380000000	42.4575420000000	50.4495500000000
297.649220000000	187.182550000000	96.1642430000000	172.445520000000	209.559170000000	137.167540000000	198.612780000000	117.595260000000	55	63	77	74	58	64	84	70	77848.1250000000	31481.7640000000	7320.74720000000	27397.7190000000	41228.7200000000	16456.9920000000	38360.7580000000	10771.4470000000	109.158290000000	102.249180000000	110.907530000000	121.545880000000	105.934130000000	101.835580000000	109.464380000000	115.106230000000	47.4525470000000	40.4595400000000	48.4515480000000	58.4415580000000	46.4535460000000	37.4625370000000	45.4545450000000	53.4465530000000
296.283750000000	199.193770000000	97.6815530000000	172.860570000000	209.930220000000	137.493170000000	198.816580000000	117.236650000000	58	59	75	80	54	62	83	70	77082.4770000000	35272.5290000000	7741.93070000000	27819.4870000000	41223.6750000000	16452.3180000000	38373.6770000000	10763.7500000000	110.239840000000	97.6864570000000	107.276800000000	92.8165670000000	110.143900000000	102.811080000000	110.487020000000	117.189420000000	46.4535460000000	46.4535460000000	51.4485510000000	42.4575420000000	49.4505490000000	38.4615380000000	46.4535460000000	55.4445550000000
294.479250000000	191.333480000000	94.4322100000000	172.412550000000	209.671830000000	137.307600000000	198.881760000000	117.195620000000	57	60	73	80	58	64	84	70	76114.0350000000	32874.5460000000	6992.86150000000	27349.0460000000	41523.9570000000	16471.8290000000	38466.8750000000	10759.0760000000	102.900690000000	88.2892780000000	118.367260000000	71.4187220000000	95.8956120000000	105.457030000000	107.519510000000	114.645030000000	45.4545450000000	38.4615380000000	60.4395600000000	32.4675320000000	36.4635360000000	40.4595400000000	44.4555440000000	53.4465530000000
298.756130000000	196.161020000000	100.759250000000	172.164790000000	211.168290000000	137.294610000000	197.564670000000	116.960270000000	54	56	79	77	57	65	85	70	77160.0850000000	33698.2010000000	8411.03130000000	27341.1450000000	41975.8700000000	16447.1280000000	37744.0310000000	10766.6390000000	49.2489950000000	49.1795620000000	76.5143800000000	111.125760000000	94.1314320000000	97.4421460000000	101.607370000000	111.165210000000	23.4765230000000	21.4785210000000	34.4655340000000	50.4495500000000	38.4615380000000	37.4625370000000	46.4535460000000	50.4495500000000
299.814460000000	192.285190000000	100.051340000000	171.904240000000	211.787820000000	136.518590000000	197.873570000000	118.687020000000	55	57	80	77	56	60	86	66	78601.4710000000	33177.4540000000	8123.91500000000	27202.8350000000	41940.6250000000	16257.6180000000	37897.0070000000	10931.1720000000	100.718170000000	113.208230000000	62.7014040000000	132.631650000000	94.9128570000000	94.8864900000000	69.3498920000000	86.5073280000000	43.4565430000000	51.4485510000000	32.4675320000000	67.4325670000000	39.4605390000000	31.4685310000000	23.4765230000000	34.4655340000000
298.711930000000	194.608810000000	99.3109530000000	170.374300000000	215.280950000000	137.812600000000	197.638400000000	135.601490000000	55	59	78	81	54	61	87	67	80207.0720000000	34483.4830000000	7886.07530000000	26896.1250000000	44369.6410000000	16823.4080000000	37939.8070000000	15589.2590000000	52.4103660000000	104.315860000000	113.290750000000	76.4962540000000	46.7761940000000	48.1903840000000	113.886750000000	118.614830000000	23.4765230000000	44.4555440000000	53.4465530000000	27.4725270000000	15.4845150000000	21.4785210000000	46.4535460000000	59.4405590000000
310.505520000000	196.370860000000	98.3912720000000	176.481900000000	219.517840000000	113.650960000000	203.150860000000	129.285670000000	56	61	75	82	58	62	86	69	85576.1760000000	35125.3400000000	7625.54250000000	27796.1950000000	45234.1510000000	10484.8140000000	40101.8990000000	13852.4280000000	69.1646700000000	106.420140000000	139.590460000000	39.4052820000000	96.9753640000000	78.3843330000000	51.0730280000000	79.0981430000000	24.4755240000000	46.4535460000000	77.4225770000000	31.4685310000000	35.4645350000000	35.4645350000000	37.4625370000000	30.4695300000000
311.296310000000	197.618910000000	98.3456400000000	149.455450000000	218.769830000000	112.381240000000	193.605590000000	131.605110000000	56	59	79	89	60	64	90	74	87656.7560000000	35088.2890000000	7811.72260000000	20156.5870000000	45143.5010000000	10286.4200000000	36444.3960000000	14325.5170000000	37.0246780000000	100.556850000000	115.939920000000	121.586040000000	114.431020000000	109.690440000000	81.2897380000000	104.721630000000	18.4815180000000	39.4605390000000	51.4485510000000	58.4415580000000	54.4455540000000	46.4535460000000	29.4705290000000	44.4555440000000
287.261500000000	196.326890000000	98.3566910000000	149.774870000000	218.809160000000	114.318690000000	193.921850000000	131.378120000000	58	65	78	89	58	62	88	74	71972.0150000000	34762.6330000000	7805.74710000000	20216.2490000000	45143.4640000000	10556.0560000000	36432.5970000000	14318.7650000000	43.4138880000000	108.109920000000	119.240160000000	112.293000000000	114.964260000000	83.8910650000000	104.487720000000	106.056630000000	23.4765230000000	43.4565430000000	59.4405590000000	52.4475520000000	55.4445550000000	30.4695300000000	41.4585410000000	46.4535460000000
289.573540000000	196.671960000000	98.5795150000000	149.873570000000	218.779260000000	112.641140000000	194.138410000000	131.112490000000	59	62	76	91	54	64	83	74	72264.0680000000	34801.4260000000	7687.35530000000	20314.2320000000	45124.1580000000	10252.4760000000	36643.8680000000	14315.2900000000	95.9931430000000	106.630290000000	114.564920000000	112.707270000000	115.377110000000	103.963740000000	105.060410000000	108.060300000000	35.4645350000000	42.4575420000000	57.4425570000000	54.4455540000000	56.4435560000000	41.4585410000000	42.4575420000000	46.4535460000000
282.114720000000	196.420330000000	98.5279500000000	150.318180000000	218.697130000000	113.021700000000	202.646120000000	131.215800000000	60	61	71	82	54	64	79	80	70031.0240000000	34739.0890000000	7708.36730000000	20264.9400000000	45125.2500000000	10307.8080000000	39954.7220000000	14415.7820000000	80.1342570000000	111.254890000000	126.133930000000	119.303460000000	116.614810000000	103.862020000000	99.4017620000000	95.3616420000000	32.4675320000000	53.4465530000000	71.4285710000000	58.4415580000000	57.4425570000000	40.4595400000000	39.4605390000000	41.4585410000000
283.770460000000	196.741030000000	99.7854750000000	150.047760000000	219.706680000000	112.060700000000	204.314520000000	135.740570000000	57	60	71	84	57	67	77	80	70400.7980000000	35393.9660000000	7952.43030000000	20274.9970000000	45457.5390000000	10118.5160000000	40603.6190000000	15600.6820000000	85.3285640000000	82.2411420000000	92.6896200000000	119.515030000000	116.067000000000	88.8295960000000	102.603650000000	68.9100890000000	32.4675320000000	25.4745250000000	38.4615380000000	58.4415580000000	55.4445550000000	30.4695300000000	39.4605390000000	35.4645350000000
280.610890000000	199.520800000000	103.446580000000	150.199260000000	219.780960000000	111.911870000000	206.027790000000	138.146240000000	60	58	70	84	59	67	70	78	68440.6270000000	35873.0260000000	8896.30840000000	20284.1650000000	45518.1370000000	9889.12500000000	41091.9680000000	16079.7630000000	88.5877280000000	63.2830770000000	116.977540000000	119.699400000000	117.211340000000	96.0621700000000	78.6964780000000	96.7388160000000	33.4665330000000	21.4785210000000	68.4315680000000	58.4415580000000	62.4375620000000	43.4565430000000	25.4745250000000	45.4545450000000
281.349210000000	197.503390000000	109.603430000000	149.962450000000	223.467340000000	110.218190000000	214.199810000000	138.793990000000	58	59	65	88	61	64	72	74	68439.8180000000	35213.1930000000	10071.3150000000	20306.2740000000	47089.6240000000	9746.10160000000	44706.4640000000	16276.1990000000	71.7971830000000	84.4958950000000	102.782350000000	119.826820000000	104.555870000000	93.0196550000000	58.5571840000000	107.407840000000	26.4735260000000	36.4635360000000	53.4465530000000	58.4415580000000	40.4595400000000	40.4595400000000	31.4685310000000	55.4445550000000
305.251280000000	196.976310000000	106.892380000000	174.694580000000	267.086570000000	117.529720000000	206.774640000000	139.798400000000	55	60	67	83	61	63	70	75	79890.2590000000	35519.7520000000	9738.65070000000	28763.4610000000	68921.9150000000	11233.6000000000	42042.6100000000	16365.0140000000	90.7816680000000	73.6889350000000	103.457020000000	87.9777810000000	136.109580000000	88.0608030000000	37.1228160000000	115.590170000000	28.4715280000000	21.4785210000000	39.4605390000000	59.4405590000000	73.4265730000000	36.4635360000000	14.4855140000000	61.4385610000000
356.527650000000	205.768120000000	113.919530000000	173.369800000000	275.960310000000	125.199670000000	202.448290000000	138.995330000000	55	62	67	80	58	63	71	74	119469.220000000	39399.7980000000	11216.5950000000	27948.4920000000	72867.8100000000	13038.9440000000	39651.3500000000	16543.5150000000	135.253690000000	33.9108160000000	62.9200030000000	97.4796890000000	78.0132200000000	87.6892790000000	90.2547740000000	72.0434330000000	83.4165830000000	18.4815180000000	25.4745250000000	63.4365630000000	31.4685310000000	28.4715280000000	31.4685310000000	27.4725270000000
392.932050000000	188.847510000000	116.989620000000	182.064640000000	274.170830000000	116.796130000000	197.799650000000	140.651420000000	54	61	63	77	58	64	74	71	144864.840000000	32012.6780000000	11729.0610000000	30897.4720000000	72507.0270000000	11134.2190000000	38094.0520000000	16961	61.8984140000000	97.6311130000000	102.535090000000	111.853000000000	84.8756970000000	40.3790560000000	59.4739270000000	113.583940000000	26.4735260000000	38.4615380000000	39.4605390000000	53.4465530000000	37.4625370000000	27.4725270000000	44.4555440000000	59.4405590000000
391.868810000000	192.971160000000	119.454930000000	181.953180000000	282.957600000000	117.492220000000	205.506190000000	139.482110000000	54	61	60	80	57	64	72	74	143627.180000000	33608.3410000000	12244.0960000000	30843.9870000000	77433.1670000000	11323.4990000000	40887.3670000000	16702.5800000000	103.058110000000	71.6358740000000	105.403180000000	122.873080000000	81.4653780000000	99.2350950000000	92.7801660000000	100.246520000000	40.4595400000000	27.4725270000000	41.4585410000000	64.4355640000000	38.4615380000000	42.4575420000000	27.4725270000000	45.4545450000000
391.720090000000	192.427890000000	119.076690000000	181.592230000000	250.669010000000	117.369780000000	203.394180000000	138.640980000000	54	62	60	86	58	60	69	70	143348.430000000	33443.6210000000	12216.4860000000	30861.9330000000	59193.7130000000	11493.7980000000	40195.9090000000	16368.8360000000	105.435460000000	96.1099910000000	106.818630000000	123.469900000000	50.4729590000000	97.8689260000000	112.340230000000	86.4449500000000	42.4575420000000	36.4635360000000	44.4555440000000	65.4345650000000	25.4745250000000	38.4615380000000	45.4545450000000	36.4635360000000
391.315480000000	193.987010000000	119.010710000000	181.695120000000	244.619700000000	117.466150000000	203.648420000000	138.293660000000	53	62	62	80	62	60	62	64	143405.040000000	33716.0070000000	12220.6260000000	30793.5550000000	57020.8030000000	11432.2840000000	40510.6950000000	16254.7870000000	106.670340000000	94.0771300000000	100.896630000000	123.786410000000	110.711270000000	109.293830000000	113.167590000000	114.232480000000	44.4555440000000	36.4635360000000	41.4585410000000	64.4355640000000	51.4485510000000	48.4515480000000	49.4505490000000	54.4455540000000
391.777020000000	197.980120000000	119.901830000000	181.423770000000	244.139140000000	117.832060000000	204.273000000000	138.897130000000	52	63	62	80	60	60	58	64	143563.340000000	35616.1110000000	12354.8920000000	30816.7930000000	56792.2340000000	11451.0850000000	40603.4220000000	16319.9710000000	107.090190000000	89.2965060000000	78.9424850000000	125.920790000000	114.250740000000	108.105790000000	114.929810000000	113.449030000000	44.4555440000000	44.4555440000000	35.4645350000000	67.4325670000000	54.4455540000000	46.4535460000000	51.4485510000000	52.4475520000000
391.558660000000	200.056610000000	119.184130000000	184.112060000000	243.802780000000	117.452580000000	204.114130000000	138.722870000000	54	66	65	78	70	60	58	66	143575.130000000	36523.5770000000	12221.4650000000	31744.1320000000	56891.8970000000	11442.1090000000	40644.7870000000	16342.2660000000	100.680240000000	65.3544180000000	131.376590000000	110.446600000000	111.697310000000	109.357100000000	109.148710000000	113.642550000000	40.4595400000000	37.4625370000000	63.4365630000000	51.4485510000000	51.4485510000000	47.4525470000000	46.4535460000000	53.4465530000000
393.365070000000	198.467750000000	120.172000000000	187.102370000000	244.113500000000	117.523180000000	204.579410000000	138.895910000000	54	65	68	75	65	58	59	66	144209.690000000	35843.7940000000	12619.9490000000	32820.3350000000	56601.5660000000	11420.6490000000	40904.2210000000	16342.7410000000	104.663850000000	108.572280000000	69.5653270000000	118.801940000000	117.575860000000	109.665930000000	110.852330000000	115.005070000000	43.4565430000000	47.4525470000000	39.4605390000000	53.4465530000000	58.4415580000000	48.4515480000000	48.4515480000000	54.4455540000000
391.859050000000	197.427410000000	118.314890000000	188.844810000000	242.630260000000	122.142810000000	206.902500000000	140.435240000000	57	68	58	73	67	58	61	72	144622.800000000	35531.5590000000	11822.6480000000	33271.4940000000	56217.6290000000	12850.9630000000	41796.1420000000	16789.3000000000	122.817430000000	87.9447380000000	103.282700000000	130.732050000000	135.070970000000	99.4255230000000	106.860840000000	102.792810000000	60.4395600000000	43.4565430000000	45.4545450000000	69.4305690000000	77.4225770000000	38.4615380000000	44.4555440000000	42.4575420000000
403.538800000000	194.671480000000	116.449040000000	213.314760000000	244.184440000000	129.833580000000	208.620540000000	140.927470000000	56	69	60	70	66	59	60	80	152978.490000000	33992.5380000000	11483.9760000000	42919.9930000000	56722.0500000000	14275.2900000000	42758.0450000000	17250.0530000000	37.7192800000000	120.131560000000	119.724100000000	70.7421370000000	103.811140000000	84.6562340000000	85.2350590000000	90.7448630000000	25.4745250000000	55.4445550000000	56.4435560000000	40.4595400000000	47.4525470000000	31.4685310000000	27.4725270000000	42.4575420000000
410.694850000000	191.291540000000	116.008190000000	212.404550000000	237.539510000000	128.044750000000	203.705450000000	125.115260000000	52	75	64	67	67	60	62	78	156923.150000000	32238.5220000000	11416.9490000000	41896.2320000000	52476.7110000000	13692.8430000000	40685.8950000000	12297.7080000000	83.1167040000000	108.782100000000	117.722910000000	83.4157450000000	94.4779870000000	98.8911340000000	74.4528320000000	85.8123790000000	27.4725270000000	49.4505490000000	56.4435560000000	42.4575420000000	43.4565430000000	39.4605390000000	26.4735260000000	46.4535460000000
402.594610000000	192.077240000000	115.575490000000	191.455970000000	226.721850000000	124.337470000000	188.270990000000	115.332510000000	58	73	66	63	64	62	71	73	149907.910000000	32242.4490000000	11426.8970000000	34190.1330000000	48628.7060000000	12995.2020000000	34527.8900000000	10129.8040000000	77.9303840000000	114.119600000000	107.788520000000	119.178030000000	125.338730000000	83.7061850000000	107.443670000000	96.5673250000000	29.4705290000000	56.4435560000000	45.4545450000000	59.4405590000000	65.4345650000000	35.4645350000000	45.4545450000000	48.4515480000000
404.493270000000	191.738620000000	118.881430000000	190.542650000000	226.578540000000	125.423470000000	188.015450000000	109.971780000000	57	78	63	57	66	64	75	64	150022.830000000	32514.1060000000	12262.8710000000	33663.4040000000	48562.2520000000	13149.9660000000	34452.4880000000	9129.77570000000	117.371550000000	88.0648020000000	86.8178870000000	121.770170000000	121.879560000000	117.742340000000	117.435630000000	120.718730000000	56.4435560000000	34.4655340000000	34.4655340000000	62.4375620000000	62.4375620000000	56.4435560000000	53.4465530000000	61.4385610000000
397.750580000000	190.750080000000	121.292040000000	190.467620000000	226.748030000000	124.289500000000	188.580440000000	111.268800000000	56	71	60	55	59	62	77	68	148817.570000000	32318.2840000000	12538.3690000000	33601.0410000000	48515.5530000000	12922.1080000000	34633.9570000000	9349.36630000000	90.7758900000000	116.179500000000	103.747050000000	122.166520000000	122.240000000000	92.1311940000000	105.260320000000	104.000450000000	32.4675320000000	55.4445550000000	43.4565430000000	63.4365630000000	63.4365630000000	36.4635360000000	42.4575420000000	50.4495500000000
393.702360000000	189.678050000000	122.105540000000	190.311550000000	227.891100000000	125.123290000000	188.460120000000	112.831540000000	55	72	63	51	63	64	84	74	145505.400000000	32241.6090000000	12929.4760000000	33495.9150000000	49071.5030000000	13053.7160000000	34476.7200000000	9725.18900000000	99.0151240000000	112.764190000000	102.894360000000	126.194470000000	123.782450000000	118.188330000000	105.232380000000	115.836160000000	37.4625370000000	53.4465530000000	41.4585410000000	65.4345650000000	63.4365630000000	58.4415580000000	46.4535460000000	67.4325670000000
394.965410000000	190.546460000000	131.900990000000	190.000390000000	229.455500000000	125.898140000000	187.689040000000	118.805540000000	54	71	61	50	68	64	84	71	146631.640000000	32240.6380000000	15319.8340000000	33444.0240000000	49564.4060000000	13248.7020000000	34418.8280000000	11045.8690000000	88.1183270000000	114.140670000000	101.412850000000	125.801340000000	113.944010000000	103.484020000000	118.898140000000	86.5340780000000	30.4695300000000	55.4445550000000	40.4595400000000	66.4335660000000	53.4465530000000	42.4575420000000	64.4355640000000	39.4605390000000
394.048710000000	197.057050000000	131.210850000000	190.668240000000	237.118440000000	130.637820000000	197.392810000000	122.369310000000	57	71	62	52	65	58	88	69	146526.790000000	34172.2710000000	15285.1570000000	33559.2470000000	53253.9530000000	14228.5600000000	37777.1540000000	12155.2330000000	85.5791050000000	121.733900000000	68.0743540000000	124.679990000000	100.249020000000	114.790290000000	71.3701430000000	65.0612690000000	26.4735260000000	57.4425570000000	32.4675320000000	64.4355640000000	42.4575420000000	56.4435560000000	31.4685310000000	38.4615380000000
408.462870000000	202.129040000000	130.002870000000	214.511920000000	243.004580000000	142.047280000000	209.635160000000	121.151800000000	54	70	60	55	62	58	85	65	153026.390000000	36201.4430000000	14663.4640000000	43403.0130000000	56400.6640000000	17976.5900000000	43562.3470000000	11694.6080000000	90.8678020000000	57.2027220000000	64.7728070000000	94.9667790000000	80.1545770000000	70.4849120000000	47.4736080000000	90.9344580000000	31.4685310000000	20.4795200000000	28.4715280000000	53.4465530000000	33.4665330000000	34.4655340000000	21.4785210000000	35.4645350000000
480.250740000000	232.165380000000	125.377300000000	225.736790000000	240.103100000000	159.836290000000	190.371500000000	124.496940000000	55	70	65	56	57	54	82	62	216401.030000000	49551.8010000000	13649.1730000000	48091.9020000000	55177.6990000000	23005.3400000000	35629.6490000000	12354.5400000000	55.9997060000000	59.1610200000000	80.2526490000000	91.7954590000000	91.1992040000000	57.3758100000000	69.8996370000000	89.9409060000000	24.4755240000000	23.4765230000000	28.4715280000000	51.4485510000000	41.4585410000000	25.4745250000000	20.4795200000000	37.4625370000000
463.643560000000	231.586070000000	122.924940000000	205.367230000000	182.282130000000	149.584200000000	196.951000000000	121.666820000000	56	70	68	61	53	56	85	61	205155.300000000	48716.7410000000	13040.7540000000	39194.0850000000	30265.8610000000	20144.3910000000	37929.2410000000	12280.4550000000	54.9580960000000	53.9773710000000	100.537040000000	94.7813300000000	121.994050000000	50.1823810000000	89.9531620000000	70.1730530000000	23.4765230000000	23.4765230000000	46.4535460000000	51.4485510000000	62.4375620000000	22.4775220000000	34.4655340000000	23.4765230000000
416.363520000000	225.864390000000	115.688570000000	193.621850000000	163.541410000000	137.360760000000	193.069140000000	121.940470000000	54	69	68	56	53	55	86	61	158402.950000000	46255.4000000000	11230.8180000000	34358.4140000000	24131.5470000000	16398.4090000000	36145.3180000000	11818.7450000000	87.1299580000000	85.7407060000000	94.0781130000000	117.131560000000	49.8439880000000	102.326230000000	80.2157720000000	81.9225880000000	34.4655340000000	29.4705290000000	41.4585410000000	65.4345650000000	16.4835160000000	36.4635360000000	32.4675320000000	32.4675320000000
373.279840000000	215.434610000000	108.547640000000	179.789470000000	162.567750000000	136.253250000000	188.836450000000	115.460460000000	57	68	66	57	54	57	85	57	128365.580000000	42582.9470000000	9851.04620000000	29683.6640000000	23517.5690000000	16181.0870000000	34314.1210000000	10520.9220000000	104.855700000000	87.5936270000000	109.677980000000	121.854070000000	62.8575980000000	101.175960000000	84.6811190000000	91.5556070000000	41.4585410000000	34.4655340000000	50.4495500000000	66.4335660000000	21.4785210000000	32.4675320000000	31.4685310000000	36.4635360000000
373.032160000000	210.060040000000	104.689280000000	179.885660000000	147.561090000000	134.834310000000	172.754500000000	115.293020000000	58	69	64	54	55	54	85	50	128284.480000000	39831.9550000000	8934.97380000000	29668.3800000000	18876.0830000000	15820.6930000000	28914.6310000000	10128.8870000000	111.388250000000	98.7842160000000	118.916350000000	128.291710000000	69.2952140000000	97.3294440000000	117.645400000000	110.646840000000	49.4505490000000	45.4545450000000	59.4405590000000	71.4285710000000	26.4735260000000	33.4665330000000	55.4445550000000	49.4505490000000
372.825270000000	227.825420000000	105.897770000000	180.913500000000	138.172620000000	134.069980000000	172.024420000000	112.724800000000	64	66	67	53	53	52	91	49	128482.360000000	47172.8020000000	9221.68930000000	29880.9360000000	16299.0630000000	15380.1330000000	28734.1590000000	9700.91660000000	108.524070000000	101.593900000000	115.887890000000	125.987420000000	119.004940000000	105.288240000000	108.597580000000	112.376100000000	46.4535460000000	45.4545450000000	54.4455540000000	67.4325670000000	49.4505490000000	41.4585410000000	46.4535460000000	52.4475520000000
373.830870000000	233.338750000000	107.524380000000	182.966810000000	137.722160000000	133.730230000000	171.286710000000	112.613120000000	61	68	66	56	54	50	94	48	128543.170000000	50490.9350000000	9496.25690000000	30618.0200000000	16210.9690000000	15339.1760000000	28275.9990000000	9680.51040000000	114.533090000000	89.3914190000000	111.748280000000	110.016560000000	107.603490000000	105.271460000000	116.434960000000	117.688150000000	51.4485510000000	43.4565430000000	54.4455540000000	54.4455540000000	46.4535460000000	41.4585410000000	55.4445550000000	55.4445550000000
