13	8	5	5	8	10	9	5
12	6	5	5	15	15	14	10
56	20	11	16	21	14	18	14
49	15	10	14	18	14	12	16
11	7	5	5	5	5	3	5
11	6	5	5	9	9	9	7
13	6	5	5	10	11	11	8
45	14	10	10	19	14	18	14
12	6	5	5	9	10	10	7
11	6	5	5	5	5	4	5
71	18	11	17	28	14	15	16
14	8	4	5	8	10	5	5
28	16	11	16	21	13	14	16
43	14	9	10	19	14	17	13
13	6	5	5	9	11	11	8
36	20	10	16	19	13	17	20
14	8	7	6	5	5	4	5
11	6	5	5	5	7	6	5
68	19	9	14	20	16	15	13
14	10	7	6	10	12	12	8
29	18	9	17	15	13	21	11
47	21	12	15	30	14	17	22
42	25	11	15	15	13	25	11
11	7	6	5	5	5	3	5
12	6	5	5	6	5	4	5
49	15	11	18	25	11	17	16
10	6	5	5	12	14	12	8
11	6	5	5	6	6	5	6
28	15	9	12	17	12	16	11
12	6	5	5	9	11	11	8
15	7	5	5	5	6	5	6
18	13	13	8	5	5	3	5
12	7	5	5	6	7	5	6
33	15	9	12	16	12	13	10
11	6	5	5	5	5	3	5
11	6	4	5	6	5	7	6
14	8	8	6	5	5	4	5
11	6	5	5	5	7	6	5
19	12	10	8	7	5	4	5
49	17	9	14	19	14	12	16
30	19	10	17	26	11	20	13
34	15	9	14	19	12	18	12
16	10	8	6	12	15	16	9
31	18	11	24	15	9	18	11
40	20	11	15	20	14	18	20
11	6	5	5	5	7	6	5
11	6	4	4	5	5	3	5
13	6	5	5	10	11	11	8
49	18	9	16	15	12	17	14
17	11	12	6	5	5	6	6
12	6	4	4	6	5	5	5
17	12	10	7	13	17	19	10
40	17	11	17	19	15	15	20
12	6	5	4	17	20	16	11
11	6	5	5	10	12	13	8
20	13	11	7	6	5	5	5
12	6	5	5	7	8	10	7
11	6	5	5	5	5	4	5
55	17	9	11	16	15	14	16
12	6	4	5	13	17	15	10
61	22	11	11	15	14	12	10
78	19	10	16	22	19	18	17
12	6	5	5	6	5	5	6
11	7	5	5	5	5	3	5
13	8	4	5	8	10	5	5
65	19	11	18	15	11	15	16
12	6	5	5	16	20	17	11
52	16	10	13	22	15	20	16
13	8	4	5	8	10	5	5
11	6	5	5	6	5	6	6
55	21	10	15	17	13	17	17
23	15	12	8	6	5	4	5
13	6	5	5	5	5	3	5
20	13	12	7	5	5	3	5
18	11	8	6	9	12	12	7
11	6	4	4	5	5	4	5
14	8	7	5	5	5	4	5
13	6	5	5	6	6	5	6
14	8	4	5	8	10	5	5
49	22	13	15	18	12	21	17
33	18	9	15	20	12	18	18
42	22	9	15	13	14	22	10
13	9	7	6	7	8	8	6
11	7	5	5	5	9	7	5
53	18	10	11	16	17	15	13
35	16	9	13	17	14	19	19
10	6	4	4	16	19	14	10
13	8	4	5	8	10	9	5
11	6	5	5	8	9	9	7
62	24	11	13	20	14	17	12
17	12	9	6	9	12	12	8
11	6	4	4	5	5	3	5
39	17	12	18	19	13	12	16
38	17	10	12	20	13	16	12
11	7	5	5	6	10	8	5
13	7	5	6	10	10	11	8
15	9	6	5	5	5	4	5
49	15	9	12	18	18	16	14
19	12	9	6	5	5	3	5
59	22	14	17	33	11	17	18
11	6	4	5	6	5	6	6
11	6	4	4	5	5	4	5
13	7	4	5	7	7	10	8
27	16	6	7	9	9	14	8
12	15	18	5	7	10	8	6
28	19	10	15	21	11	20	13
58	19	9	16	20	16	21	16
54	19	10	15	20	12	14	15
13	6	4	5	6	5	5	6
14	8	4	5	8	10	5	5
14	9	7	5	9	11	11	7
28	14	8	12	16	13	14	10
11	7	4	5	6	10	8	5
11	6	5	4	13	15	11	9
13	8	5	5	8	10	9	5
23	14	12	7	12	15	18	10
58	20	9	11	15	12	12	11
11	6	5	5	8	10	8	7
12	6	5	5	5	5	4	5
54	17	9	13	22	15	16	17
11	7	7	5	5	5	3	5
13	17	18	5	7	10	8	6
70	30	14	18	28	14	23	18
51	14	10	15	23	11	15	14
12	7	5	5	6	6	6	6
14	8	4	5	8	10	5	5
11	6	4	4	5	5	5	5
12	8	19	5	10	11	12	9
43	26	12	18	18	12	18	17
51	19	10	16	19	16	21	16
14	8	6	6	5	5	4	5
11	7	5	5	5	6	5	5
21	13	10	7	5	5	3	5
13	10	11	7	5	5	3	5
11	6	5	5	5	7	6	5
11	6	5	5	10	10	11	7
61	21	11	14	17	11	14	13
11	6	5	4	5	5	3	5
11	6	5	5	13	14	14	10
13	8	7	6	6	5	3	5
12	7	5	5	6	10	8	6
22	6	4	4	5	5	5	5
15	9	8	6	7	5	3	5
18	13	11	7	13	18	17	10
13	8	6	5	6	5	6	5
13	6	5	5	10	9	9	7
60	22	11	11	16	14	12	10
71	30	15	20	26	15	24	21
11	6	5	5	5	5	3	5
12	6	5	5	6	5	4	5
11	6	4	5	5	5	5	5
14	8	4	5	8	10	5	5
13	6	5	5	5	5	4	5
17	11	8	6	5	5	4	5
35	19	10	16	23	12	18	17
14	6	5	5	5	5	3	5
11	6	5	5	5	7	6	5
46	19	11	15	22	13	15	14
32	17	9	14	22	19	22	20
13	6	5	5	11	12	12	9
13	9	5	5	8	10	9	6
20	14	11	7	13	18	18	10
12	6	5	5	13	16	15	10
13	8	4	5	8	10	9	5
20	12	12	7	5	5	6	6
11	6	5	5	5	5	3	5
17	12	9	6	10	13	14	9
40	19	9	16	14	14	20	13
53	20	11	13	17	14	15	18
24	15	6	7	8	8	11	6
80	37	14	22	20	18	15	24
12	6	4	4	5	5	3	5
40	17	9	22	13	14	21	12
51	18	9	14	21	17	16	17
19	12	10	8	5	5	4	5
73	33	17	19	19	15	19	19
67	21	11	18	16	11	17	17
11	6	4	5	6	5	6	6
11	6	5	5	5	7	6	5
61	22	11	11	15	14	12	10
57	18	10	9	16	10	8	16
11	6	4	5	5	5	4	5
59	20	11	14	19	11	10	17
11	6	4	4	5	5	3	5
23	6	5	5	5	5	5	5
11	7	5	5	10	10	8	7
61	17	11	16	29	17	20	16
11	6	5	5	5	5	4	5
12	8	5	5	7	9	9	6
13	6	5	5	5	5	4	5
13	6	5	5	5	5	4	5
10	6	4	4	5	5	5	5
72	18	9	14	20	16	15	14
16	7	6	5	5	5	4	5
12	8	4	5	7	9	7	5
18	9	10	6	6	5	6	6
14	8	4	5	8	10	5	5
51	19	11	15	18	15	17	15
13	8	4	5	8	10	9	5
18	13	10	7	12	15	18	10
11	6	5	5	5	5	4	5
11	7	5	5	5	6	5	5
36	17	11	12	22	13	22	21
46	20	12	13	22	12	16	18
11	6	5	5	5	7	6	5
11	7	5	5	5	5	4	5
27	17	8	13	9	10	15	9
11	6	5	5	5	5	3	5
11	6	5	5	5	6	5	5
11	6	5	5	6	7	6	6
40	22	11	12	15	9	20	10
22	13	12	7	5	5	7	6
11	6	4	5	6	5	7	6
10	6	5	5	12	14	12	9
17	11	9	7	7	5	3	5
11	6	5	4	5	5	3	5
11	7	6	5	6	5	4	6
13	8	4	5	8	10	5	5
12	9	19	5	8	10	11	8
26	13	13	7	5	5	5	6
56	20	12	16	24	14	20	18
29	18	10	24	15	9	19	12
38	22	10	17	20	14	18	21
13	8	4	5	8	10	9	5
32	22	11	19	13	13	22	14
12	6	5	4	17	20	16	10
13	7	5	6	7	8	8	7
48	17	10	14	16	13	18	13
61	22	10	16	14	9	15	14
18	12	10	7	6	5	4	5
40	15	8	8	11	6	9	7
54	24	13	16	24	13	19	18
15	9	7	5	11	13	12	8
39	21	10	16	18	15	17	15
13	6	5	5	6	7	7	6
46	23	11	17	19	15	16	16
53	14	10	14	24	17	20	18
54	16	9	12	22	16	15	11
13	7	4	5	6	6	10	7
63	20	11	12	19	19	14	15
47	20	10	16	18	15	18	20
40	17	9	8	13	15	21	12
63	20	10	12	19	19	14	15
48	18	9	16	21	16	17	19
70	18	9	15	18	16	17	13
23	6	4	5	7	7	7	6
13	8	4	5	8	10	5	5
23	13	14	7	5	5	5	6
12	6	5	5	10	11	14	8
11	7	5	5	5	6	5	5
19	12	9	8	5	5	4	5
19	12	11	6	6	5	5	6
33	17	8	14	12	8	15	8
12	6	5	5	13	15	15	10
11	6	5	5	5	5	4	5
12	6	5	5	8	10	9	7
48	14	7	12	18	14	15	12
40	17	8	13	10	15	8	8
76	21	13	16	15	13	14	16
10	6	5	4	5	5	6	5
11	6	5	5	9	11	10	8
11	6	5	5	5	7	6	5
11	6	5	5	5	7	6	5
11	6	5	5	8	9	10	8
32	19	8	14	17	11	17	9
47	27	13	18	18	13	18	17
33	15	10	13	20	13	17	12
14	8	4	5	8	10	5	5
11	7	6	5	7	7	9	7
55	24	12	19	22	16	23	26
13	6	5	5	10	11	10	8
11	6	5	5	5	7	6	5
73	30	15	20	27	15	24	21
12	7	6	5	7	5	3	5
17	13	10	6	11	15	13	8
14	8	4	5	8	10	5	5
14	8	4	5	8	10	5	5
13	7	7	5	5	5	3	5
19	13	10	7	5	5	4	5
13	8	4	5	8	10	5	5
18	11	10	7	5	6	6	5
63	25	12	15	20	14	16	13
24	16	6	7	9	9	13	7
64	19	9	16	19	13	16	14
11	6	5	5	5	6	5	5
14	6	4	5	7	6	9	7
55	18	10	12	17	14	18	14
14	8	4	5	8	10	5	5
42	22	10	22	14	11	24	13
11	6	5	5	5	7	6	5
20	13	11	7	6	5	6	5
41	17	10	14	24	13	16	19
11	7	6	5	5	5	4	5
35	22	11	11	13	7	20	10
38	19	10	13	20	14	18	13
43	17	11	16	27	13	20	22
11	6	5	5	5	7	6	5
11	6	5	5	5	5	4	5
66	21	11	13	13	12	15	12
14	8	4	5	8	10	5	5
44	22	10	16	18	14	16	17
50	16	8	13	20	17	17	17
12	8	5	5	7	9	7	5
11	7	4	5	5	9	7	5
50	17	10	14	16	13	19	13
14	9	6	5	8	10	10	6
10	9	18	4	6	5	6	6
16	9	7	6	5	5	4	5
11	6	4	5	6	5	6	6
10	6	5	4	16	19	15	10
48	13	9	10	20	14	18	13
15	11	10	7	6	5	3	5
12	9	18	5	13	15	15	10
23	13	12	7	5	5	6	6
39	21	11	19	14	10	18	13
59	22	12	16	24	16	20	22
12	7	6	5	7	5	3	5
12	8	7	6	7	5	4	5
12	6	5	5	8	9	8	7
15	10	7	5	9	10	10	7
11	6	5	5	10	11	11	8
19	12	10	7	5	5	4	5
61	31	10	16	20	17	19	17
14	7	5	5	5	5	4	5
13	8	5	5	14	15	15	10
22	13	14	8	7	5	3	5
11	7	6	5	6	5	7	6
62	22	12	17	19	16	16	23
50	17	11	16	22	16	21	18
52	20	10	13	17	13	17	16
15	7	5	5	10	10	9	7
11	6	5	5	11	13	11	8
66	21	11	10	18	15	13	15
12	6	5	5	10	11	12	8
19	12	10	8	7	5	3	5
11	6	5	5	5	5	4	5
10	6	5	5	7	8	7	7
13	7	5	5	16	19	17	11
16	10	9	6	6	5	5	5
16	11	8	6	13	15	17	9
18	12	11	7	11	13	16	9
61	28	12	16	29	12	15	15
15	9	9	6	5	5	4	5
33	15	10	10	16	12	14	10
28	14	8	11	15	11	13	9
28	17	8	13	9	10	15	9
13	8	5	5	8	10	9	6
11	6	4	5	5	5	4	5
11	6	5	5	5	7	6	5
11	6	5	5	5	6	5	5
12	8	5	5	6	10	8	6
14	8	4	5	8	10	5	5
11	6	5	5	5	5	4	5
34	16	8	13	18	12	15	13
11	7	6	5	6	5	3	5
11	7	5	4	13	16	16	10
68	22	13	17	21	12	14	16
14	18	18	5	7	10	9	6
40	15	8	8	12	6	10	7
10	6	5	5	5	5	3	5
11	6	5	5	5	5	3	5
11	6	4	5	5	5	5	5
22	12	13	8	6	5	4	5
18	11	10	6	5	5	5	5
11	6	4	4	5	5	3	5
19	12	10	8	7	5	3	5
39	22	11	19	13	10	18	12
13	7	5	5	7	8	7	6
11	6	4	5	5	5	4	5
14	8	4	5	8	10	5	5
11	6	5	5	13	16	14	10
67	21	11	10	17	16	12	15
22	13	14	8	7	5	4	5
13	8	4	5	8	9	8	5
32	21	11	22	14	13	21	14
51	20	11	16	21	13	19	15
13	8	6	5	5	5	5	5
12	7	6	5	5	5	3	5
12	8	7	6	6	5	4	6
11	7	6	5	6	5	4	5
11	6	4	4	5	5	3	5
11	6	5	5	5	7	6	5
15	19	19	6	8	11	11	7
12	8	19	5	8	9	11	8
33	13	8	8	10	6	10	7
12	7	5	5	16	20	15	11
11	6	5	5	5	5	3	5
11	7	6	5	5	5	4	5
15	10	7	6	9	11	12	7
13	8	5	5	8	10	9	5
11	6	5	4	13	16	15	10
12	7	5	5	5	5	3	5
13	6	5	5	11	12	12	9
69	22	11	15	25	15	16	18
50	21	12	14	22	13	16	20
12	7	7	6	6	5	4	6
14	7	6	5	5	5	4	5
11	8	10	5	7	5	3	5
14	6	6	5	5	5	4	5
67	26	13	18	30	14	21	19
12	9	18	5	8	8	11	8
11	6	5	5	5	5	6	6
37	23	10	18	13	13	17	11
11	13	12	5	6	9	7	5
60	18	11	13	20	14	16	15
11	6	5	5	5	7	6	5
12	7	7	6	7	5	4	5
13	8	4	5	8	10	5	5
22	12	14	8	7	5	4	5
59	15	9	11	22	13	18	16
11	6	5	4	5	5	5	5
32	14	10	15	22	10	13	12
58	20	11	13	19	10	10	18
14	8	5	5	7	7	5	6
13	8	5	5	8	10	9	6
13	8	4	5	8	10	9	5
64	21	10	11	17	17	14	11
20	12	12	7	5	5	6	6
18	9	10	6	6	5	6	6
11	6	4	5	5	5	4	5
11	6	5	5	9	10	11	8
53	23	11	14	23	15	21	22
11	7	4	5	5	9	7	5
11	9	18	5	8	7	11	8
55	15	9	12	18	17	15	16
11	6	4	5	5	5	4	5
63	16	11	15	24	13	15	15
52	18	9	15	22	18	16	18
13	8	4	5	8	10	5	5
15	17	19	6	8	12	12	8
11	6	4	5	8	9	8	6
23	13	12	8	6	5	4	6
11	6	4	4	6	5	6	5
40	16	10	16	19	13	14	19
36	25	11	17	17	12	21	20
11	6	5	5	11	15	11	8
32	15	9	13	19	12	16	16
37	21	9	17	14	14	20	12
69	20	11	15	14	13	13	15
20	13	10	7	7	6	4	5
11	6	4	4	5	5	4	5
55	20	9	11	19	16	16	14
47	20	12	15	23	14	18	14
14	8	4	5	8	10	5	5
18	12	10	6	6	5	5	5
20	13	11	7	6	5	6	6
13	6	5	5	7	8	7	6
43	19	8	18	16	14	20	14
11	6	4	5	7	8	8	7
20	12	10	6	5	5	3	5
15	7	6	5	10	10	10	8
11	6	5	5	5	7	6	5
38	25	11	19	18	13	18	20
55	16	8	12	16	13	12	11
56	19	9	18	16	14	18	14
43	19	8	18	16	14	20	14
59	19	10	11	15	12	14	13
20	12	11	7	5	5	3	5
11	6	4	5	7	7	9	7
12	6	5	5	5	5	4	5
24	15	12	8	6	5	4	5
41	24	10	14	14	13	24	12
10	6	5	5	8	10	9	7
31	17	11	14	19	13	20	15
17	10	8	6	9	11	12	7
20	15	14	8	5	5	3	5
14	8	4	5	8	10	5	5
11	7	5	4	13	16	15	10
11	7	5	5	6	5	6	6
11	6	5	5	6	6	6	6
61	21	12	15	17	15	12	18
10	6	5	5	13	16	14	10
16	9	6	5	5	5	3	5
14	8	4	5	8	10	5	5
56	21	11	12	17	11	14	13
21	14	11	7	11	15	16	9
11	6	5	5	5	7	6	5
11	6	5	5	10	13	11	7
50	20	10	16	21	17	24	17
12	7	7	5	6	5	7	6
51	16	8	12	16	13	12	11
63	19	11	18	33	17	18	15
11	6	5	5	5	7	6	5
70	29	14	17	29	15	16	22
12	9	18	5	11	12	14	9
30	16	10	13	18	12	19	13
44	19	11	14	26	14	21	20
11	6	5	5	5	6	5	5
39	22	11	19	13	10	18	12
32	22	11	23	14	13	22	14
12	6	5	5	6	5	5	6
13	7	5	6	10	10	11	8
16	10	9	6	5	5	7	6
11	6	4	4	5	5	3	5
18	12	8	7	5	5	4	5
11	7	5	4	13	16	16	10
11	6	5	5	5	5	3	5
14	8	4	5	8	10	5	5
50	20	10	10	19	15	16	14
68	21	11	12	19	19	14	14
11	6	5	5	5	7	6	5
12	7	6	6	7	5	4	5
14	18	18	6	8	11	10	7
62	20	10	18	20	19	18	15
50	19	10	13	21	14	21	14
10	6	5	5	5	5	4	5
11	6	5	5	6	5	4	5
12	8	19	5	16	19	16	10
65	18	10	11	21	14	17	14
11	6	5	5	5	5	4	5
11	6	5	5	6	5	4	5
14	11	8	6	9	12	12	8
13	6	5	5	10	11	10	8
12	6	5	5	8	8	8	7
13	8	4	5	8	10	5	5
10	6	5	5	5	5	4	5
48	16	10	13	17	13	17	12
38	16	10	10	16	13	14	10
11	6	4	4	5	5	5	6
27	15	10	12	16	12	15	11
67	21	11	18	16	10	18	17
39	17	9	9	13	15	20	11
45	23	13	15	24	13	19	18
42	16	10	15	22	12	19	18
11	7	4	5	6	10	8	5
11	7	5	5	13	16	16	10
12	7	6	5	5	5	3	5
20	13	12	7	5	5	4	5
47	27	13	18	18	12	18	17
13	6	5	5	10	11	11	8
16	10	10	6	5	5	6	6
54	20	11	13	17	14	16	18
11	6	5	5	5	5	5	5
12	7	6	5	5	5	4	5
62	25	12	15	20	13	16	13
22	14	13	7	12	15	18	10
41	20	8	19	13	14	23	11
46	23	11	14	21	13	22	21
11	6	5	5	5	7	6	5
11	6	5	5	5	7	6	5
54	16	8	13	16	13	15	13
47	18	11	17	23	12	17	19
16	10	9	6	5	5	4	5
20	13	10	7	5	5	3	5
11	7	5	5	7	8	6	6
12	7	5	5	6	5	7	6
54	16	9	12	18	17	15	16
15	7	5	5	10	10	9	7
17	11	9	6	10	14	13	8
14	8	4	5	8	10	5	5
11	6	4	5	5	5	5	6
14	11	8	5	9	12	11	8
11	6	5	5	5	6	5	5
11	6	5	5	13	13	13	9
14	8	4	5	8	10	5	5
22	12	12	8	5	5	4	5
46	19	8	13	12	19	10	10
13	8	4	5	8	10	5	5
13	8	8	5	6	5	8	6
19	12	10	6	6	5	6	5
11	6	5	5	5	7	6	5
11	6	5	5	5	5	4	5
39	21	11	19	13	10	18	12
11	7	5	5	14	16	14	10
39	21	11	19	13	10	18	12
11	6	5	5	5	5	4	5
41	20	9	19	13	14	23	11
11	6	5	5	5	5	4	5
20	13	11	7	5	5	4	5
11	6	4	5	5	5	6	6
10	6	4	5	5	5	4	5
22	12	10	8	7	5	4	5
22	15	13	7	12	15	19	10
56	20	11	16	21	14	18	14
39	21	11	19	13	10	18	12
13	7	5	6	10	10	11	8
20	13	10	7	7	5	4	5
11	6	4	5	6	6	6	6
14	6	5	5	6	5	5	6
38	18	10	13	19	12	18	20
47	21	10	15	20	13	17	14
40	17	9	9	13	15	21	12
35	23	10	13	14	11	22	10
15	8	5	5	7	7	5	6
11	6	4	5	5	5	4	5
18	12	10	7	12	15	16	9
45	17	11	18	20	15	15	20
13	8	4	5	8	10	5	5
11	6	5	5	5	5	4	5
13	7	5	5	16	20	17	11
21	12	11	7	5	5	6	6
11	6	5	5	5	7	6	5
69	21	10	15	20	17	17	15
58	20	11	14	19	11	10	18
15	17	19	6	8	12	11	8
14	8	5	5	7	7	5	6
20	14	11	7	14	18	18	10
38	13	9	13	18	11	17	14
12	6	4	5	13	17	15	10
14	8	4	5	8	10	5	5
11	6	5	5	5	5	3	5
12	8	6	5	5	5	4	5
14	8	4	5	8	10	5	5
40	17	9	22	12	14	21	12
11	6	4	5	5	5	5	5
13	8	4	5	8	10	5	5
11	6	5	5	5	7	6	5
11	6	5	4	6	5	7	6
12	7	5	5	5	5	3	5
40	21	11	22	14	11	22	14
19	13	11	7	12	14	17	10
11	6	4	4	5	5	3	5
21	11	9	7	6	5	4	5
20	14	11	7	14	18	17	10
13	8	6	5	6	7	7	6
11	7	5	5	14	16	16	10
18	13	10	7	14	17	19	11
11	6	5	5	5	7	6	5
56	16	11	14	18	15	12	18
74	22	15	17	29	14	17	19
12	6	5	5	5	5	4	5
12	8	7	5	5	5	6	6
12	7	6	5	5	5	7	6
14	8	4	5	8	10	5	5
11	6	5	4	6	5	6	6
14	8	4	5	8	10	5	5
12	14	13	5	7	10	10	7
47	20	9	14	15	14	17	17
18	11	10	6	5	6	6	6
19	11	8	6	5	5	3	5
11	7	5	5	6	10	8	5
14	8	4	5	8	10	5	5
14	9	4	5	8	10	5	5
12	6	5	5	10	11	11	8
11	6	5	5	5	6	5	5
63	21	10	13	21	14	20	15
13	6	5	5	6	6	6	6
39	21	9	19	13	14	23	11
62	18	10	15	20	19	16	13
13	6	5	5	10	11	11	8
11	6	5	5	5	5	3	5
35	16	10	13	19	12	18	16
14	8	4	5	8	10	5	5
10	6	4	4	5	5	5	5
10	6	5	5	7	7	7	6
11	6	5	4	14	15	12	9
56	21	11	15	16	12	17	13
14	8	4	5	8	10	5	5
21	14	12	8	6	5	3	5
11	6	4	5	5	5	4	5
11	6	6	5	5	5	3	5
11	6	4	4	5	5	3	5
32	16	9	13	19	12	15	15
11	6	4	4	5	5	5	5
15	8	6	5	5	5	3	5
14	8	4	5	8	10	5	5
13	7	5	5	16	19	17	11
29	19	10	17	21	13	19	11
44	15	9	14	17	12	13	13
18	11	10	7	6	5	6	6
11	6	5	4	5	5	3	5
13	8	4	5	8	10	5	5
11	6	4	5	6	5	6	6
11	6	4	5	5	5	4	5
66	22	11	14	25	14	16	18
15	10	7	6	11	13	15	8
14	8	4	5	8	10	5	5
14	9	9	6	6	5	3	5
12	6	5	4	13	17	14	10
14	8	4	5	8	10	5	5
54	19	9	15	22	17	21	17
11	6	5	5	5	7	6	5
12	6	5	5	10	11	13	8
12	8	19	5	14	16	14	9
11	6	5	5	5	5	3	5
14	10	8	6	7	10	9	7
14	11	8	6	9	13	11	7
56	16	9	12	21	16	15	11
55	20	13	15	23	11	20	18
12	7	5	5	5	5	4	5
11	6	5	5	5	7	6	5
20	13	12	7	5	5	3	5
14	8	6	5	5	5	4	5
11	7	6	5	8	10	11	8
11	14	13	5	6	9	8	6
18	9	10	6	6	5	7	6
11	6	5	5	9	11	11	8
57	18	10	9	17	10	8	16
13	16	18	5	7	11	9	6
67	32	12	20	21	19	20	23
11	8	8	5	6	5	3	5
11	6	4	5	5	5	4	5
18	12	11	7	11	14	17	9
13	8	4	5	8	10	5	5
13	8	5	5	15	16	15	10
11	6	5	5	7	8	8	7
13	9	7	5	9	11	10	7
21	13	10	7	5	5	3	5
12	6	5	5	10	11	11	8
15	10	8	6	5	5	4	5
57	19	9	17	16	14	18	14
11	7	6	5	6	5	4	6
69	17	11	16	28	13	15	16
20	13	10	7	6	5	4	5
21	9	10	6	5	5	5	6
57	15	8	12	16	13	13	12
21	14	10	7	7	6	4	5
21	13	12	7	6	5	7	6
13	8	5	5	15	16	14	10
11	6	5	5	5	5	3	5
19	12	9	6	5	5	3	5
17	9	10	6	6	5	7	6
37	16	10	13	18	12	16	15
10	6	5	5	5	5	3	5
53	21	11	11	18	14	13	15
13	7	5	6	10	10	11	8
12	7	5	5	6	8	8	7
12	15	13	5	7	10	10	7
11	6	5	5	5	5	5	5
23	6	4	4	5	5	5	5
26	17	7	12	9	10	16	9
12	6	5	5	9	11	11	8
18	12	10	6	12	15	15	9
11	7	5	5	14	16	16	10
14	8	4	5	8	10	5	5
12	9	6	5	7	8	8	6
19	12	10	8	7	5	3	5
10	6	4	5	6	6	8	6
60	17	11	13	20	14	16	15
17	12	9	6	9	12	12	8
11	6	5	5	5	5	4	5
12	6	5	5	5	5	4	5
11	6	4	5	5	5	3	5
15	7	5	5	9	9	8	7
11	7	5	5	5	5	6	5
30	21	10	16	14	11	21	12
12	9	6	5	8	10	11	7
14	8	4	5	8	10	5	5
14	8	4	5	8	10	5	5
30	21	10	16	15	11	21	12
62	20	10	18	20	19	19	16
21	12	10	8	7	5	4	5
18	13	10	7	13	17	19	10
18	6	5	5	5	5	5	5
74	17	10	19	25	18	20	19
48	14	10	14	23	16	20	18
35	17	9	22	14	14	21	12
61	29	16	19	19	14	18	19
35	20	11	15	20	14	20	20
13	8	4	5	8	9	8	5
42	18	11	13	23	12	17	14
11	6	5	5	5	5	4	5
41	17	9	21	12	14	21	12
74	35	12	21	20	17	15	24
54	23	13	18	18	13	22	19
20	13	10	6	5	5	3	5
11	6	4	5	5	5	6	6
19	10	8	6	5	5	4	5
13	8	7	6	5	5	3	5
15	8	6	5	5	5	4	5
12	6	5	5	5	5	4	5
40	22	11	12	15	10	18	10
19	12	11	6	5	5	5	6
41	18	8	13	10	15	8	8
11	6	4	5	5	5	5	5
37	21	10	17	14	13	17	11
18	11	11	6	5	5	7	6
13	8	5	5	8	10	9	5
15	16	14	6	9	12	11	8
35	23	12	20	14	13	21	13
11	6	4	5	6	6	7	6
16	10	9	6	5	5	3	5
11	6	5	5	7	7	8	7
11	6	4	5	6	5	7	6
10	6	4	4	5	5	5	5
12	7	5	5	5	5	4	5
11	6	4	5	5	5	4	5
10	6	4	4	5	5	3	5
11	7	6	5	7	8	11	8
11	7	6	5	6	5	3	5
12	8	5	5	7	9	8	5
19	12	9	7	5	5	4	5
14	8	4	5	8	10	5	5
49	20	11	11	18	14	13	15
43	17	10	13	17	14	19	19
54	20	11	13	18	15	16	18
18	13	10	7	13	17	17	10
14	8	4	5	8	10	5	5
19	11	5	5	8	5	7	6
28	19	9	15	21	11	20	13
14	8	4	5	8	10	5	5
64	19	9	10	20	14	20	15
14	8	4	5	8	10	5	5
57	24	10	14	23	15	20	16
73	25	12	14	26	15	16	19
11	6	5	5	5	5	4	5
18	10	7	6	5	5	5	5
72	17	10	18	25	18	22	19
50	21	10	16	19	14	20	20
11	7	6	4	13	15	15	10
20	15	13	8	5	5	4	5
15	8	5	6	8	7	6	6
12	8	19	5	16	18	15	10
37	17	10	14	20	14	18	14
13	6	5	5	9	9	8	7
11	6	5	5	6	5	3	5
13	8	4	5	8	10	5	5
13	8	8	6	6	5	4	6
66	19	10	15	19	16	16	13
30	19	8	11	14	8	12	9
13	8	5	5	8	10	9	6
59	21	12	15	18	14	12	17
17	12	9	6	10	13	15	9
13	8	4	5	8	10	5	5
20	11	10	6	5	5	5	5
13	6	5	5	9	11	11	8
27	17	8	13	9	10	15	9
13	6	5	5	9	10	9	7
11	6	4	5	6	6	7	6
35	18	8	13	11	9	15	10
65	19	9	15	19	16	17	14
11	7	4	5	5	9	7	5
13	8	4	5	8	10	5	5
12	8	5	5	8	9	9	6
18	12	11	7	6	5	3	5
16	12	9	6	9	13	13	8
16	10	9	7	6	5	4	5
18	10	9	6	5	5	4	5
11	7	10	6	5	5	3	5
21	14	11	7	12	16	17	9
12	14	13	5	7	10	10	7
14	8	4	5	8	10	5	5
18	12	9	7	7	6	4	5
20	11	11	7	5	5	5	5
62	23	14	16	24	15	19	23
43	23	10	17	21	13	16	16
14	8	4	5	8	10	5	5
14	8	4	5	8	10	5	5
12	7	4	5	6	7	5	6
12	14	13	5	7	10	10	6
10	6	5	4	14	17	12	8
40	19	8	13	13	19	11	10
13	7	4	5	15	16	14	10
11	6	5	5	6	5	3	5
13	8	4	5	8	10	9	5
12	9	19	5	9	11	11	9
13	6	5	5	11	12	11	9
21	12	11	7	5	5	4	5
11	6	5	5	5	7	6	5
50	17	10	14	16	13	17	13
16	11	9	6	13	16	16	9
13	8	4	5	8	10	9	5
12	6	5	5	10	11	10	8
13	9	5	5	8	10	9	6
13	7	5	6	10	10	10	8
13	15	14	5	8	11	11	7
33	15	9	14	18	13	19	12
20	13	11	7	6	5	6	6
12	8	5	5	6	10	8	5
15	9	7	6	5	5	4	5
11	6	5	5	5	5	6	6
13	9	7	5	9	10	11	7
35	22	11	11	14	8	21	10
44	15	9	13	15	12	17	11
61	15	10	12	23	13	18	16
11	6	4	5	5	5	5	5
11	6	4	5	5	5	4	5
13	8	5	5	8	10	9	6
16	11	9	6	10	12	14	8
27	18	9	24	15	10	20	12
42	19	8	18	16	14	20	14
11	6	5	5	5	7	6	5
13	8	5	5	8	10	9	5
11	9	18	4	7	5	8	6
31	20	8	14	17	11	17	9
10	6	4	5	6	5	6	6
41	22	10	22	14	11	24	12
11	6	4	4	6	5	7	6
43	19	8	18	16	14	20	14
11	6	6	6	5	5	3	5
14	8	4	5	8	10	5	5
17	12	10	7	12	15	16	9
11	6	4	5	9	11	10	7
11	7	5	5	6	9	7	5
22	13	14	8	6	5	4	5
66	21	11	10	17	15	12	15
11	7	6	5	5	6	6	6
25	18	8	11	13	8	12	9
53	21	10	15	18	13	13	19
11	6	5	5	5	7	6	5
14	9	8	6	7	10	9	7
11	6	5	5	5	7	6	5
52	22	11	13	23	15	20	18
14	9	9	6	6	5	4	5
21	14	12	8	6	5	4	5
84	35	17	20	27	16	19	20
13	6	5	5	7	7	6	6
15	7	6	5	5	5	4	5
14	8	5	6	8	7	7	6
11	6	4	5	5	5	5	5
11	6	5	5	5	7	6	5
38	19	10	13	21	15	16	13
52	21	13	18	27	15	21	24
39	19	11	16	25	10	10	12
19	12	10	8	5	5	4	5
65	22	15	16	25	15	18	25
20	14	11	7	11	15	16	9
11	6	5	5	13	14	14	10
13	7	5	5	15	16	15	10
43	18	12	18	18	14	13	17
11	6	4	5	5	5	6	6
27	15	10	13	21	11	16	17
14	8	4	5	8	10	5	5
13	9	7	5	8	10	9	7
11	6	4	5	9	10	10	7
13	8	4	5	8	10	5	5
66	21	11	10	17	16	12	14
11	6	5	5	5	5	4	5
51	17	9	14	20	18	16	18
11	8	19	4	5	5	5	5
33	15	10	12	17	12	13	11
12	6	4	5	6	5	4	5
42	15	10	11	18	18	16	13
11	6	5	5	8	8	9	7
11	7	5	5	6	5	5	6
14	7	4	5	7	8	10	7
28	16	9	12	18	13	16	11
42	21	11	14	20	12	17	14
57	18	10	9	17	10	8	16
10	6	5	4	7	10	8	7
31	12	8	12	17	11	14	11
14	8	4	5	8	10	5	5
41	16	9	15	23	20	19	20
13	8	4	5	8	9	8	5
39	19	11	18	28	11	20	13
57	16	10	14	20	17	17	15
42	17	10	14	25	13	17	19
66	17	8	15	24	18	18	16
11	7	6	5	13	15	15	10
11	7	6	5	6	7	7	6
11	6	4	5	5	5	5	5
60	17	11	16	29	13	17	16
12	6	5	5	6	5	4	5
14	9	7	6	7	7	5	6
41	17	9	15	24	20	23	20
14	8	4	5	8	10	5	5
60	18	9	15	21	19	17	13
33	23	9	13	14	11	22	11
44	19	11	14	25	14	19	20
53	16	8	11	20	14	17	14
13	10	7	5	9	10	10	7
21	14	13	8	13	15	18	10
18	11	9	7	6	5	4	5
16	12	9	6	9	13	13	8
11	6	5	5	10	11	11	8
22	13	12	7	5	5	5	6
12	6	4	5	13	17	15	10
57	18	10	12	16	15	15	14
67	22	10	13	21	15	18	15
41	19	10	15	21	11	14	15
22	13	11	7	5	5	4	5
11	6	4	5	5	5	5	5
15	7	5	5	5	6	5	6
14	9	8	6	5	5	6	6
11	6	4	5	6	7	7	6
13	11	8	5	9	12	11	7
12	9	19	5	12	15	13	10
10	6	5	4	6	5	6	6
19	13	10	7	6	5	6	6
11	7	5	5	6	9	7	5
12	7	4	5	6	7	5	6
12	6	5	5	5	5	4	5
21	8	9	6	5	5	6	6
11	6	5	5	5	7	6	5
13	8	4	5	8	10	9	5
82	30	15	18	28	15	19	20
11	6	4	5	6	5	5	6
60	33	11	18	22	17	19	18
31	13	9	14	19	11	18	16
50	16	8	12	16	13	12	11
17	11	9	6	11	14	14	9
51	15	9	12	21	15	19	14
12	6	5	5	16	19	16	11
11	6	4	5	5	5	4	5
59	27	12	15	26	12	19	15
14	18	18	6	7	10	9	6
11	6	5	5	13	14	14	10
11	7	5	5	6	9	7	5
40	22	11	12	16	10	17	10
11	7	5	5	5	9	7	5
14	8	5	5	8	8	7	6
13	8	5	5	8	10	9	6
11	6	5	5	5	7	6	5
11	6	5	5	5	7	6	5
11	6	5	5	9	11	11	8
23	13	12	8	6	5	4	6
13	6	5	5	7	7	7	6
13	8	6	5	14	16	10	8
47	19	11	15	18	13	17	15
20	13	12	8	6	5	3	5
11	7	8	5	6	5	3	5
13	8	4	5	8	10	5	5
20	13	10	7	5	5	4	5
52	18	9	13	17	16	18	16
57	16	9	11	16	15	15	15
13	6	5	5	10	11	11	8
32	20	8	14	17	11	18	10
19	13	11	7	6	5	6	5
12	7	4	5	6	7	5	6
35	17	11	12	21	13	22	21
45	18	11	14	19	13	16	17
68	25	13	18	14	12	15	16
11	7	9	6	5	5	3	5
13	8	5	5	15	16	15	10
12	7	5	5	8	8	9	7
12	6	4	4	5	5	3	5
57	21	14	18	25	12	22	22
14	7	6	5	5	5	4	5
12	6	4	5	7	6	8	6
17	10	9	7	5	5	3	5
41	19	8	13	13	19	11	10
18	11	10	6	5	5	5	5
11	7	7	5	5	5	3	5
14	9	9	5	6	5	8	6
14	8	4	5	8	10	5	5
11	6	4	5	5	5	5	5
11	6	5	5	7	8	7	6
30	20	9	17	15	13	22	12
11	6	4	5	8	9	9	7
13	8	4	5	8	10	9	5
15	16	18	6	7	11	10	7
13	9	5	5	8	10	9	6
12	7	5	5	6	10	8	6
30	18	11	15	16	11	21	12
46	20	12	15	25	14	18	23
50	16	10	13	24	15	22	19
33	16	7	13	13	8	14	8
56	21	11	15	17	13	17	17
11	7	6	5	5	5	6	6
47	20	10	16	17	14	18	20
49	21	10	16	19	14	20	20
11	6	4	5	9	10	10	7
12	6	4	5	5	5	4	5
50	15	7	12	17	17	13	12
15	6	5	5	5	5	4	5
52	17	10	10	16	13	17	14
44	19	11	13	21	14	16	20
21	13	11	8	5	5	4	5
13	7	5	6	10	10	11	8
12	6	5	5	6	6	5	6
34	22	12	19	13	13	22	14
13	8	4	5	8	10	9	5
21	13	11	7	5	5	3	5
52	20	9	10	15	11	12	11
56	20	11	16	21	14	18	14
54	23	13	18	19	13	22	19
35	19	10	16	23	12	18	17
11	7	5	5	10	10	11	8
11	6	4	5	9	10	11	8
45	20	12	17	25	13	15	20
56	20	11	16	21	14	19	14
15	8	5	6	7	7	6	6
43	19	8	18	16	14	20	14
19	9	10	6	6	5	7	6
11	6	4	5	6	6	7	6
21	13	12	7	5	5	7	6
11	6	5	5	5	5	5	5
11	6	5	5	5	7	6	5
23	6	5	5	8	8	8	7
51	20	9	11	13	15	10	10
39	17	9	9	13	15	21	12
11	6	5	5	5	5	4	5
11	6	5	5	5	5	4	5
21	14	11	7	13	17	17	10
56	21	10	15	15	14	17	17
14	7	5	5	10	11	10	8
13	8	5	5	14	15	15	10
11	6	5	5	5	5	4	5
11	6	4	5	5	5	5	5
10	6	5	5	8	10	7	7
66	17	9	15	22	17	18	16
67	25	13	18	14	12	15	16
21	14	12	8	5	5	4	5
47	24	11	17	21	14	16	16
23	15	12	8	6	5	4	5
54	19	9	13	16	16	17	13
13	8	7	5	8	8	6	6
13	8	5	5	8	9	8	6
67	24	15	17	28	15	18	25
46	20	12	15	26	14	19	23
19	10	9	6	5	5	5	6
13	8	4	5	8	10	5	5
19	12	14	7	7	5	4	5
11	6	5	5	5	6	5	5
55	18	9	15	20	13	20	15
13	9	7	6	9	10	12	7
11	7	5	5	5	5	3	5
22	12	14	8	6	5	4	5
21	14	9	7	5	5	4	5
15	10	8	6	12	14	15	9
49	17	11	16	21	16	21	18
11	8	19	5	5	5	5	5
10	6	4	4	5	5	3	5
46	18	8	13	11	18	9	9
12	8	7	5	8	10	9	6
11	7	4	5	5	9	7	5
19	12	9	7	7	5	3	5
60	17	11	13	21	14	16	15
12	6	4	5	5	5	4	5
11	6	4	5	7	7	7	6
41	24	10	14	14	13	24	12
14	8	4	5	8	10	5	5
14	8	4	5	8	10	5	5
35	23	10	13	14	11	22	10
16	10	8	7	7	5	3	5
30	21	10	16	15	11	21	12
49	14	9	10	19	13	17	13
38	16	10	13	20	18	20	14
40	19	10	15	21	11	14	15
11	6	5	5	5	5	4	5
23	15	11	8	5	5	3	5
51	14	10	14	24	17	20	18
17	11	8	7	5	5	4	5
13	8	4	5	8	10	5	5
10	6	4	4	5	5	5	5
62	22	13	17	25	11	10	17
12	6	5	5	5	5	4	5
11	6	5	5	5	5	4	5
14	15	14	6	8	11	11	7
11	6	4	4	5	5	3	5
11	6	4	4	5	5	3	5
13	8	7	6	5	5	4	5
60	22	12	16	25	16	20	23
22	6	4	4	5	5	5	5
18	12	10	7	12	15	15	9
66	25	15	17	30	15	18	25
20	12	12	7	5	5	6	6
67	16	9	14	22	12	15	16
39	19	8	18	16	14	21	14
20	14	11	7	12	16	14	9
49	18	12	16	21	16	21	17
19	12	10	8	7	5	3	5
12	6	5	5	8	8	8	7
63	26	14	16	24	13	19	18
52	20	11	15	28	14	15	21
20	15	14	8	5	5	3	5
34	15	9	13	18	14	15	16
11	6	5	5	9	10	11	8
55	20	9	11	19	16	16	14
13	9	6	6	9	10	11	7
39	20	9	12	13	7	11	8
41	21	10	15	22	12	16	12
13	8	4	5	8	10	9	5
11	14	13	5	6	10	9	6
12	6	5	5	10	12	14	8
11	6	5	5	5	7	6	5
52	18	11	16	21	16	20	17
61	18	11	16	30	17	21	16
18	10	8	6	5	5	5	6
10	6	5	4	5	5	3	5
12	8	5	5	8	9	9	6
13	7	5	5	16	20	17	11
11	7	6	5	6	5	8	6
47	21	11	15	20	12	18	15
14	8	4	5	8	10	5	5
67	33	12	20	21	19	22	23
11	6	5	5	7	7	6	6
56	24	13	19	23	16	23	26
11	6	5	5	10	10	9	7
11	7	6	4	13	16	15	10
12	8	6	5	6	10	8	6
10	9	19	5	5	5	6	6
11	7	5	5	14	16	16	10
23	15	12	8	6	5	4	5
41	22	10	22	14	11	24	13
13	6	5	5	5	5	4	5
11	6	5	5	6	5	3	5
23	13	12	8	6	5	4	6
17	11	10	6	6	5	7	6
41	24	10	14	16	13	24	12
15	9	8	7	7	5	4	5
11	7	4	5	5	9	7	5
14	8	4	5	8	10	5	5
59	19	12	15	24	13	19	17
41	17	9	22	12	14	21	12
31	13	8	12	18	11	12	11
13	7	4	5	6	6	9	6
39	19	9	16	13	13	16	12
12	6	5	5	8	8	7	7
39	20	8	13	13	19	11	10
42	19	10	15	20	13	15	14
11	6	4	5	5	5	4	5
12	6	4	5	6	5	6	6
11	6	5	4	9	10	8	7
27	12	7	11	11	7	12	8
17	11	10	7	11	13	15	9
37	22	10	18	13	13	17	11
21	14	12	7	13	15	18	10
12	8	6	6	5	5	4	5
14	8	4	5	8	10	5	5
11	6	5	5	8	9	9	7
12	7	5	5	5	5	5	5
13	9	6	5	8	10	11	6
13	9	5	5	8	10	9	6
13	8	5	5	8	10	9	6
11	6	5	5	12	17	13	9
47	21	11	15	20	13	18	15
11	6	5	5	11	12	13	9
39	22	11	19	14	10	22	13
57	21	9	12	17	16	14	15
55	14	9	11	18	17	15	16
14	8	4	5	8	10	5	5
11	6	5	5	5	5	5	5
33	19	8	14	16	9	16	8
21	11	8	7	5	5	4	5
12	6	5	6	10	10	11	8
15	9	9	6	6	5	6	6
11	6	4	5	7	7	8	7
12	9	18	5	7	6	10	7
12	8	5	5	8	10	9	6
41	17	8	21	12	14	21	12
37	22	10	18	14	13	17	11
14	8	4	5	8	10	5	5
13	8	4	5	8	10	9	5
12	6	4	5	7	6	8	6
21	13	13	7	5	5	5	6
11	6	4	5	5	5	4	5
12	6	4	5	7	7	9	7
19	12	10	6	6	5	6	5
65	22	15	17	33	12	17	18
62	21	11	15	13	13	16	13
43	21	9	17	14	15	23	11
19	12	10	8	7	5	3	5
49	20	10	10	18	15	14	13
11	6	5	5	5	5	3	5
10	6	4	4	5	5	3	5
35	17	10	15	18	15	19	19
17	12	10	7	12	15	17	10
17	12	10	6	13	17	17	10
16	12	9	6	9	12	12	8
11	6	5	5	9	11	13	8
38	21	10	17	15	14	22	13
23	15	11	8	5	5	3	5
14	18	18	6	8	11	9	7
14	8	4	5	8	10	5	5
10	6	4	4	5	5	5	5
37	22	10	17	20	13	18	20
11	6	4	4	5	5	4	5
11	8	19	4	6	5	6	6
11	6	5	5	5	7	6	5
10	6	5	5	13	15	13	9
43	22	10	22	14	11	24	13
11	6	5	5	5	7	6	5
18	12	10	7	12	15	16	9
49	17	9	14	19	14	12	16
39	20	9	18	14	13	23	11
49	15	9	11	21	13	16	13
11	6	5	5	5	5	3	5
13	8	5	5	8	10	9	6
14	8	4	5	8	10	5	5
40	22	11	12	15	10	18	10
11	6	4	4	5	5	3	5
46	17	9	13	17	15	16	15
14	8	4	5	8	10	5	5
12	6	4	4	5	5	3	5
11	6	5	5	5	5	4	5
56	21	10	15	17	14	17	17
49	15	9	12	18	18	16	14
16	17	19	6	9	13	13	8
61	18	10	11	21	14	16	14
51	16	10	13	21	15	21	16
13	7	5	5	14	16	14	10
16	9	9	6	6	5	7	6
38	22	10	18	14	14	18	11
11	7	5	5	6	5	6	5
13	8	4	5	8	10	5	5
11	6	5	5	7	8	8	7
54	17	10	14	18	13	15	16
50	20	10	15	19	14	17	20
12	6	5	5	5	5	4	5
12	7	5	5	16	19	15	10
12	8	7	6	6	5	4	5
30	12	6	11	10	15	8	7
13	7	5	6	10	10	11	8
14	8	4	5	8	10	5	5
20	14	12	8	5	5	4	5
61	18	9	16	18	13	17	14
38	21	10	17	15	14	20	13
16	9	7	5	8	10	10	6
11	6	4	4	5	5	6	6
36	23	9	14	14	11	22	11
15	7	6	5	10	10	9	7
12	7	6	6	6	5	3	5
21	12	11	7	5	5	5	6
11	6	5	5	13	13	13	9
11	6	4	5	5	5	4	5
11	6	5	5	5	5	4	5
18	12	10	6	6	5	6	5
39	25	12	17	17	12	17	17
13	6	5	5	9	9	8	7
13	8	4	5	8	10	5	5
12	9	7	5	7	9	8	6
21	14	11	7	13	16	17	10
15	9	6	6	5	5	4	5
43	17	10	15	22	11	17	18
19	13	10	7	11	14	13	9
14	9	7	6	5	5	4	5
11	6	5	5	5	7	6	5
59	20	11	14	18	10	10	17
11	7	5	5	5	7	6	5
37	16	11	10	16	12	14	10
12	7	6	5	5	5	4	5
11	6	5	5	5	7	6	5
37	25	11	19	19	13	21	20
36	25	9	11	14	9	23	11
13	8	4	5	8	10	5	5
11	6	5	5	5	5	4	5
12	8	19	5	7	7	9	7
13	8	4	5	8	10	8	5
19	14	11	8	5	5	4	5
32	15	10	15	22	10	10	12
14	9	4	5	8	10	5	5
67	33	12	20	22	19	22	24
17	9	7	6	5	5	4	5
19	14	11	7	13	18	18	10
14	8	5	5	7	7	5	6
70	20	12	18	33	18	18	16
14	8	6	5	8	10	10	6
12	7	5	5	8	10	9	7
68	26	13	18	30	14	20	19
41	20	9	19	13	14	23	11
13	7	5	6	10	10	11	8
45	18	11	16	24	13	15	20
66	23	10	13	22	15	18	15
28	18	10	24	15	9	18	12
12	6	5	5	13	13	14	9
23	15	12	8	5	5	4	5
10	6	4	4	5	5	5	5
11	6	4	5	8	8	9	7
11	6	5	5	7	7	7	6
11	6	4	4	5	5	5	5
12	6	4	5	8	8	9	7
14	8	4	5	8	10	5	5
19	12	10	7	5	5	4	5
11	6	4	4	5	5	5	5
35	23	10	13	14	11	22	10
11	6	5	5	5	5	4	5
14	8	4	5	8	10	5	5
17	11	7	6	5	5	4	5
12	6	5	5	7	7	7	7
36	19	10	13	15	12	18	10
11	6	4	5	6	6	7	6
14	8	4	5	8	10	5	5
56	20	9	11	19	16	16	14
11	7	6	5	5	5	3	5
11	6	5	5	6	5	4	5
39	22	10	16	21	13	16	16
11	9	18	4	5	5	6	6
66	20	10	16	18	13	16	14
12	7	6	5	5	6	6	6
20	12	10	6	10	13	14	8
13	17	18	5	6	10	8	6
12	7	5	5	5	5	5	5
60	22	12	16	14	12	15	15
18	13	10	7	14	17	19	11
15	11	9	6	10	14	11	7
36	19	10	13	15	12	18	10
20	13	10	7	7	5	4	5
11	6	4	5	6	5	6	6
13	8	8	6	5	5	6	6
10	6	4	4	5	5	5	6
11	6	5	5	5	7	6	5
14	8	4	5	8	10	5	5
20	13	12	8	6	5	3	5
49	24	12	15	25	13	19	21
11	6	5	5	6	5	3	5
73	30	15	20	27	15	22	21
61	21	11	15	16	12	17	13
16	11	10	6	5	5	4	5
11	6	4	4	5	5	3	5
18	12	11	6	5	5	5	5
16	12	11	7	6	5	3	5
59	18	9	15	21	16	18	14
18	9	10	6	5	5	5	5
46	16	9	13	16	14	11	16
41	24	11	14	15	13	25	12
52	23	14	16	30	14	17	23
13	7	7	5	6	5	8	6
40	16	9	22	13	14	21	12
37	23	10	18	13	13	17	11
13	8	4	5	8	10	5	5
17	11	10	7	12	15	16	9
11	6	5	5	7	7	7	6
13	6	5	5	8	9	8	7
21	14	10	7	7	6	4	5
11	6	4	5	6	7	10	6
14	8	4	5	8	10	5	5
17	9	7	6	5	5	5	5
11	6	5	5	10	12	15	8
13	8	5	5	8	8	7	6
41	15	9	13	23	20	18	16
13	9	11	7	5	5	3	5
20	15	11	7	12	15	13	9
29	17	11	16	23	13	17	20
47	18	9	13	17	14	16	18
42	20	11	15	19	14	16	20
59	20	13	16	25	13	21	20
29	17	11	16	23	13	15	20
66	23	12	14	18	12	14	13
52	18	9	15	22	18	16	17
43	17	10	13	17	14	19	19
11	6	5	5	5	7	6	5
39	19	11	18	24	12	20	14
19	9	5	5	8	5	7	6
13	8	4	5	8	10	5	5
36	20	10	13	16	12	18	10
29	18	11	24	15	9	19	11
11	6	4	5	5	5	4	5
12	15	18	5	7	10	8	6
30	14	10	11	19	13	19	13
14	8	4	5	8	10	5	5
11	6	4	5	6	6	7	6
68	22	11	13	13	12	15	12
41	17	10	13	17	14	19	19
14	8	4	5	8	10	5	5
14	8	4	5	8	10	5	5
11	7	5	5	5	5	3	5
11	6	5	5	5	5	4	5
11	7	6	5	6	5	3	5
55	33	11	18	22	17	19	18
13	8	4	5	8	10	5	5
60	17	9	10	17	15	16	14
13	8	5	5	8	10	9	6
11	6	4	5	5	5	4	5
16	10	9	6	7	6	4	5
15	8	5	5	7	7	5	5
12	6	5	5	6	5	4	5
19	13	12	7	12	15	18	10
11	6	4	5	9	9	10	8
39	19	11	18	25	11	20	13
11	7	5	5	5	5	3	5
20	13	11	7	5	5	4	5
19	11	9	7	5	5	4	5
41	24	10	14	14	13	24	12
12	7	5	5	6	5	6	6
13	9	5	5	8	10	9	6
52	16	9	15	22	18	17	18
56	24	13	16	25	16	22	23
57	20	10	13	23	14	18	17
11	6	5	5	5	7	6	5
13	6	5	5	11	12	12	9
10	6	5	5	5	5	4	5
12	6	4	5	10	11	13	8
11	6	4	4	5	5	5	5
40	20	13	21	24	14	20	12
16	9	9	5	6	5	7	6
10	9	19	5	6	5	6	6
11	6	4	4	5	5	3	5
11	6	5	5	5	6	5	5
11	6	4	4	6	5	6	6
11	7	5	5	6	10	8	5
12	6	5	5	5	5	3	5
19	11	11	7	6	5	6	6
21	13	12	7	6	5	7	6
40	17	9	22	14	14	21	12
10	6	5	4	12	13	12	9
11	6	5	5	9	11	10	8
47	16	9	13	17	13	17	12
25	12	12	7	5	5	5	6
11	6	5	5	5	5	4	5
12	6	5	5	12	12	13	9
12	9	6	5	8	10	11	6
13	17	18	5	6	10	8	6
13	8	4	5	8	10	5	5
10	6	5	5	6	6	6	6
79	21	12	18	33	19	18	17
11	7	7	5	5	5	3	5
16	10	8	6	5	5	4	5
61	17	11	13	21	14	17	15
10	6	5	5	10	12	9	8
12	7	5	5	6	5	6	6
10	6	5	4	5	5	6	5
13	8	8	5	6	5	8	6
57	20	14	17	25	13	18	19
17	12	10	6	13	17	17	10
58	21	13	14	24	14	19	18
10	6	5	5	5	5	5	5
12	6	4	5	5	5	5	5
11	6	4	4	5	5	3	5
11	6	4	5	13	17	14	10
32	20	8	14	17	11	17	9
55	19	11	13	19	13	15	13
13	8	7	5	6	5	6	5
40	19	9	16	14	14	20	13
13	8	4	5	8	9	8	5
11	6	4	5	5	5	4	5
14	8	4	5	8	10	5	5
11	6	5	5	5	6	5	5
40	19	10	15	18	14	18	18
11	6	5	5	5	7	6	5
11	6	5	5	5	5	4	5
13	8	4	5	8	10	5	5
11	6	4	5	5	5	4	5
47	18	9	13	17	14	17	15
10	6	4	4	5	5	5	5
11	6	5	5	5	5	5	5
21	13	12	7	13	14	18	10
11	6	5	5	5	7	6	5
15	10	9	6	11	12	15	8
49	17	11	16	22	16	21	18
10	6	4	4	5	5	5	5
54	19	9	15	22	17	21	17
12	9	5	5	8	10	10	6
52	20	12	18	28	15	18	21
10	6	4	4	5	5	5	5
11	6	5	5	6	5	3	5
13	8	5	5	8	9	8	6
64	23	11	13	20	15	16	19
37	14	8	8	11	6	10	7
20	13	11	7	6	5	6	6
14	8	6	5	5	5	4	5
11	6	4	4	5	5	5	5
12	6	5	5	9	10	9	7
11	6	4	5	5	5	5	5
11	6	5	5	5	7	6	5
11	6	4	5	5	5	6	5
13	8	4	5	8	10	5	5
11	6	5	5	5	5	4	5
11	7	6	5	6	5	3	6
62	21	10	13	21	14	20	14
22	13	14	8	7	5	4	5
61	21	12	16	18	15	12	18
20	13	12	7	12	15	18	10
19	12	11	6	6	5	5	6
11	6	5	5	5	5	5	5
54	17	10	12	16	15	15	14
21	11	9	8	7	5	4	5
11	6	4	5	7	8	8	7
25	18	8	11	14	8	12	9
11	6	4	5	6	6	7	6
11	6	4	5	5	5	6	6
11	7	4	4	6	5	8	6
36	19	10	13	15	12	18	10
15	9	7	5	9	11	12	7
14	6	4	5	6	5	5	6
37	18	11	15	17	15	21	20
11	7	5	5	6	9	7	5
52	23	11	15	20	12	16	13
13	8	5	5	8	10	9	5
37	21	10	18	18	13	18	16
12	8	19	5	6	7	8	7
42	20	9	14	13	14	20	13
11	6	5	5	5	5	4	5
63	20	9	16	20	16	21	16
11	7	5	5	5	5	5	5
31	18	11	24	15	9	18	11
63	21	12	16	21	12	14	15
15	8	5	6	8	7	7	6
20	15	13	8	5	5	4	5
33	17	11	16	22	13	21	15
11	6	5	5	9	10	10	8
12	6	4	5	10	10	10	8
19	11	9	6	9	12	13	7
11	6	4	5	5	5	5	5
10	6	4	4	13	17	14	10
20	11	9	7	5	5	4	5
11	6	5	5	5	6	5	5
14	8	4	5	8	10	5	5
43	17	10	13	18	14	19	19
13	8	7	6	5	5	3	5
16	10	9	6	6	5	5	6
11	6	5	5	5	7	6	5
12	6	4	4	5	5	3	5
46	15	11	17	19	15	14	17
13	7	5	5	10	10	11	8
12	9	19	5	6	5	7	6
59	22	10	13	22	14	18	15
49	20	9	14	18	13	12	17
59	20	13	16	25	14	22	20
60	17	11	15	21	14	17	15
49	20	10	13	17	13	17	16
69	19	9	14	20	16	14	13
20	13	12	7	5	5	3	5
11	6	5	5	5	5	4	5
11	7	4	5	6	10	8	5
23	15	12	8	5	5	3	5
12	6	4	5	5	5	3	5
13	7	5	5	16	19	17	11
10	6	5	4	13	15	13	8
17	12	9	6	5	5	4	5
52	16	10	13	22	15	21	16
11	7	4	5	5	9	7	5
12	6	5	5	9	11	10	8
27	16	6	7	9	9	14	8
12	6	4	5	7	6	9	7
13	8	4	5	8	10	5	5
24	15	12	8	6	5	4	5
11	7	5	5	6	6	4	6
13	8	4	5	8	10	5	5
11	6	4	5	7	8	8	6
13	6	5	5	16	20	17	11
14	8	4	5	8	10	5	5
42	14	9	11	19	16	14	11
13	8	5	5	10	11	13	8
41	19	10	11	18	12	13	13
11	6	4	4	6	7	7	7
18	13	10	7	13	17	19	10
53	18	9	13	17	17	18	16
16	6	4	5	5	5	5	5
21	14	10	7	7	6	4	5
33	15	10	12	17	12	13	10
11	6	5	5	9	10	13	7
13	9	5	5	8	10	9	6
24	15	12	8	6	5	4	5
11	6	4	5	6	6	6	6
11	7	6	5	5	5	4	5
37	21	10	17	16	13	18	11
11	6	4	5	6	5	7	6
21	13	13	7	5	5	5	6
13	8	4	5	8	10	8	5
11	14	13	5	6	9	9	6
11	6	4	5	11	12	12	9
14	8	4	5	8	10	5	5
61	26	13	16	27	13	21	19
11	6	5	5	6	6	4	6
54	18	8	15	21	16	19	15
11	6	5	5	5	7	6	5
39	19	11	18	24	11	20	13
47	17	9	13	20	13	12	15
15	7	5	5	8	8	7	7
11	6	4	4	5	5	3	5
10	6	5	5	5	5	3	5
18	11	12	7	5	5	6	6
12	7	5	5	6	7	7	6
13	8	4	5	8	10	5	5
11	6	5	5	5	6	5	5
16	11	13	7	7	5	4	5
13	9	11	6	7	5	4	5
23	7	5	5	8	8	9	7
34	20	11	14	19	13	20	20
19	12	11	7	6	5	6	6
38	16	10	10	16	13	14	10
66	19	10	15	19	16	16	13
31	15	10	12	17	11	13	10
12	7	6	5	6	5	7	6
11	6	5	5	5	5	4	5
12	14	13	5	6	10	9	6
19	14	11	7	12	16	13	9
26	12	13	7	5	5	5	6
13	6	5	5	6	7	6	6
11	6	5	5	5	5	4	5
11	6	5	5	5	5	4	5
14	8	4	5	8	10	5	5
63	25	15	17	30	15	18	25
66	24	12	14	17	12	14	13
62	19	11	11	16	14	13	12
48	19	11	14	21	14	16	20
11	6	5	5	10	11	12	8
42	16	10	15	21	11	17	18
14	10	8	6	11	14	13	8
11	6	5	5	10	11	12	8
21	11	9	7	5	5	4	5
12	15	18	5	7	10	8	6
11	14	12	5	6	9	7	5
16	11	8	6	9	13	12	8
11	7	5	5	10	11	10	8
51	23	13	18	18	12	21	19
14	8	4	5	8	10	5	5
12	9	19	5	13	17	14	10
21	13	11	8	5	5	4	5
49	20	10	14	19	13	16	14
17	10	10	6	5	6	6	6
40	22	10	11	14	9	20	10
11	6	4	5	7	6	7	6
57	19	8	12	15	16	12	11
19	12	10	8	7	5	3	5
12	6	5	5	8	8	10	7
11	6	4	5	5	5	4	5
12	6	5	5	13	14	14	10
21	13	12	7	6	5	7	6
11	6	5	5	5	7	6	5
62	19	12	17	30	18	23	19
73	31	17	19	19	16	19	19
37	25	11	19	19	13	22	20
35	20	11	15	20	14	20	20
10	6	4	4	5	5	5	5
11	6	5	5	5	5	4	5
13	8	5	5	8	10	9	6
12	8	4	5	7	9	7	5
20	13	11	7	5	5	3	5
14	16	18	5	7	11	9	7
17	12	10	6	11	15	14	9
32	23	11	23	14	13	22	14
11	6	4	5	5	5	4	5
52	16	8	12	16	17	12	12
14	8	7	5	5	5	4	5
20	14	11	7	12	16	13	9
38	18	8	13	17	11	14	15
52	17	9	10	16	12	16	12
11	6	4	5	6	5	7	6
11	7	6	5	5	5	3	6
14	9	6	5	8	11	10	7
13	8	4	5	8	10	5	5
12	7	6	6	5	5	4	5
11	6	4	4	6	5	5	5
17	7	7	5	5	5	4	5
59	18	10	12	19	14	18	15
11	6	4	5	5	5	6	6
11	6	5	5	5	7	6	5
16	10	8	6	9	11	12	8
11	7	6	5	6	8	7	6
65	29	14	17	29	13	15	22
28	19	10	14	22	11	21	13
13	6	5	5	8	8	8	6
11	6	4	5	6	6	6	6
10	6	5	4	10	13	10	8
11	7	5	5	5	5	4	5
17	12	10	7	11	14	16	9
16	10	9	6	5	6	6	6
39	19	13	19	22	12	18	11
14	6	6	5	5	5	4	5
23	15	12	8	5	5	4	5
68	28	14	16	27	15	15	22
39	19	12	18	24	11	20	13
11	6	5	5	5	6	5	5
18	6	5	5	5	5	5	5
11	6	4	5	8	9	9	7
38	20	11	22	15	10	18	13
20	15	13	8	5	5	4	5
11	7	5	5	6	5	5	6
11	6	5	5	6	7	7	7
34	15	8	9	17	12	13	13
20	12	10	8	7	5	3	5
73	30	15	20	27	15	24	21
11	6	5	5	11	12	13	9
13	8	5	5	8	10	9	6
44	25	12	16	16	13	18	18
14	6	5	5	6	5	5	6
21	14	11	8	5	5	4	5
50	18	10	15	16	15	17	15
15	9	10	6	6	5	4	5
12	6	4	5	6	5	5	5
11	7	5	5	6	9	7	5
14	8	4	5	8	10	5	5
35	23	11	11	15	9	21	10
13	6	5	5	11	12	12	9
17	12	9	6	10	13	15	9
16	10	7	6	9	11	12	8
11	6	5	5	5	5	4	5
20	13	10	7	7	5	4	5
11	7	5	5	7	7	5	6
61	32	10	16	19	17	19	18
21	12	11	7	5	5	5	6
62	25	11	13	19	14	17	13
37	17	10	14	16	14	19	15
11	7	5	5	5	5	4	5
11	7	6	5	6	5	3	5
33	19	8	14	16	9	16	9
12	6	5	5	10	11	12	8
14	8	4	5	8	10	5	5
14	8	4	5	8	10	5	5
43	19	8	18	16	14	20	14
11	6	4	5	5	5	5	5
11	6	4	5	7	8	11	7
13	8	4	5	8	10	5	5
51	16	7	12	17	17	13	12
63	20	11	16	15	9	18	17
13	9	5	5	8	10	9	6
33	13	9	14	20	11	19	16
51	16	9	10	14	13	13	11
59	18	9	11	20	15	18	15
10	6	4	4	5	5	3	5
59	19	9	11	15	13	14	13
42	21	12	14	19	12	23	18
62	18	10	11	13	14	13	12
37	19	12	13	15	12	18	10
10	6	4	5	5	5	4	5
56	19	10	11	16	13	13	12
40	20	9	11	14	7	11	8
11	6	5	5	5	7	6	5
34	17	11	16	23	13	20	15
12	7	5	5	8	8	9	7
11	6	5	5	9	9	9	7
13	15	14	6	8	11	11	7
13	7	5	5	10	13	15	10
11	7	5	5	5	6	5	5
11	6	4	5	5	5	5	5
11	6	5	4	12	12	10	8
37	17	11	12	19	12	17	18
12	6	5	5	6	5	4	5
11	6	4	5	5	5	4	5
34	15	9	12	17	14	19	18
38	20	11	18	15	10	18	13
29	12	7	11	10	6	11	8
11	7	5	5	6	7	6	6
11	7	5	4	14	16	13	10
59	18	10	12	19	14	18	15
35	20	11	17	27	12	20	13
32	14	8	12	17	14	12	14
32	15	10	13	20	13	17	12
14	8	4	5	8	10	5	5
39	15	9	11	17	12	19	18
12	6	5	5	7	7	8	7
13	8	4	5	8	9	8	5
65	23	13	17	13	12	15	16
11	6	5	5	5	5	7	6
11	6	4	5	5	5	4	5
42	20	11	15	20	14	18	20
11	6	7	6	5	5	3	5
15	10	10	6	5	5	6	6
45	18	10	16	22	12	17	18
55	21	10	16	18	15	13	19
58	21	14	18	26	13	20	22
23	13	12	8	6	5	4	6
15	9	6	6	5	5	4	5
13	7	4	5	15	16	14	10
12	7	4	5	6	7	5	6
16	11	9	6	9	12	12	7
13	8	4	5	8	10	5	5
33	22	13	19	13	14	23	14
13	8	4	5	8	10	5	5
12	7	4	5	6	7	5	6
57	18	10	9	17	10	8	16
21	13	10	7	7	6	4	5
34	13	8	12	18	13	18	11
27	17	8	13	10	10	15	9
64	19	12	19	30	18	23	20
13	6	5	5	8	9	9	7
14	8	4	5	8	10	5	5
18	12	10	7	12	15	15	9
13	9	7	6	9	10	12	7
11	6	4	4	5	5	4	5
22	12	11	7	5	5	4	5
17	12	10	6	6	5	5	6
10	6	5	4	12	12	11	8
11	6	5	5	13	16	15	10
11	7	4	5	6	10	8	5
10	6	5	5	5	5	4	5
19	14	11	7	12	16	13	9
40	22	11	12	15	10	18	10
51	17	10	14	15	13	16	13
11	7	7	5	5	5	3	5
19	11	5	5	8	5	8	6
58	24	13	16	25	16	21	23
72	17	9	15	24	18	19	16
45	16	11	17	20	15	14	20
11	7	5	5	6	9	7	5
12	8	5	5	6	10	8	6
20	11	10	6	5	5	4	5
67	23	10	13	22	15	18	15
11	6	5	5	5	7	6	5
18	12	9	6	5	5	4	5
11	6	5	5	6	5	4	5
58	21	14	19	26	12	23	22
32	18	9	14	20	10	16	15
11	6	4	5	5	5	3	5
10	6	5	5	5	5	3	5
13	16	18	5	7	10	9	6
13	8	7	5	6	8	8	6
63	20	9	16	21	16	21	16
26	16	6	7	9	9	13	8
19	12	10	7	5	5	3	5
11	6	5	5	5	7	6	5
56	21	11	15	17	13	17	17
21	13	13	7	5	5	5	6
12	6	5	5	10	10	11	8
48	18	8	13	18	14	15	12
14	8	4	5	8	10	5	5
11	6	4	5	5	5	4	5
39	18	9	15	12	12	15	11
43	18	13	18	19	13	13	17
14	8	4	5	8	10	5	5
15	19	19	6	9	11	12	7
60	20	9	15	13	9	15	14
11	7	6	5	6	6	5	6
11	6	4	5	9	9	8	7
11	7	6	5	6	5	3	5
58	21	12	15	24	17	17	19
10	6	4	5	6	5	7	6
30	19	10	16	15	11	21	12
34	15	9	13	18	14	13	16
13	8	4	5	8	10	5	5
40	15	9	9	11	6	9	7
63	19	10	15	15	11	14	14
29	18	9	17	21	13	19	11
13	7	5	6	6	6	6	6
58	24	13	16	26	16	23	23
12	6	5	5	10	11	13	8
11	7	5	5	5	5	4	5
13	7	4	5	15	16	14	10
50	16	9	12	14	13	14	11
51	16	10	14	24	16	22	19
12	7	5	5	9	10	10	8
15	17	19	6	8	13	12	8
21	13	11	7	5	5	3	5
52	20	10	11	16	15	13	13
16	12	9	6	9	12	12	8
13	6	5	5	9	10	9	7
11	6	4	5	5	5	4	5
11	7	5	5	5	6	5	5
14	10	6	5	8	10	10	7
42	22	9	16	14	13	22	10
14	8	4	5	8	10	5	5
10	6	5	5	5	5	3	5
30	19	11	15	15	11	21	12
15	7	5	5	10	11	10	8
58	14	10	12	22	12	17	16
47	15	9	11	18	16	14	11
19	14	11	7	13	18	17	10
33	17	11	16	20	13	21	15
37	19	11	13	15	12	18	10
11	6	5	5	6	5	4	5
19	7	6	5	5	5	5	6
12	7	5	5	8	8	9	7
13	8	4	5	8	10	5	5
15	7	5	5	10	10	10	8
11	6	5	5	5	5	5	5
58	19	10	13	21	14	21	15
56	22	12	16	25	16	20	19
13	8	4	5	8	10	5	5
17	11	9	6	5	5	5	5
13	7	7	6	7	5	3	5
10	9	19	4	5	5	5	5
37	19	8	18	16	12	20	14
16	12	9	6	9	13	13	8
11	6	4	5	8	9	9	7
29	18	11	24	15	9	19	11
18	13	10	7	12	16	18	10
11	6	5	5	5	5	4	5
37	20	9	14	19	13	16	16
30	12	6	11	11	6	11	8
65	18	10	11	20	15	17	14
18	11	10	6	5	6	5	5
11	7	4	5	5	9	7	5
20	14	11	7	12	16	14	9
32	22	11	23	14	13	22	14
51	16	10	13	22	14	19	15
56	24	12	19	23	16	19	26
59	20	11	12	22	15	16	18
39	19	12	19	22	12	18	11
11	6	4	4	5	5	3	5
20	15	11	7	13	17	14	9
49	19	9	16	23	16	17	20
42	22	9	15	13	13	21	10
66	20	10	16	18	13	16	14
12	6	5	5	7	7	7	6
18	13	9	7	5	5	4	5
53	19	11	12	17	15	14	16
39	17	8	9	12	15	19	11
14	8	4	5	8	10	5	5
11	6	5	5	5	7	6	5
84	36	17	20	28	16	19	20
11	6	4	4	5	5	3	5
32	15	8	10	18	12	14	16
14	8	4	5	8	10	5	5
15	9	7	5	9	11	11	7
21	12	9	8	6	5	4	5
10	6	5	5	5	5	5	5
54	20	10	14	14	11	15	11
21	13	13	7	5	5	5	6
55	16	10	13	23	16	20	17
67	32	11	19	20	15	19	20
55	14	9	11	18	17	15	16
49	15	11	18	25	12	16	16
10	6	5	5	5	5	3	5
14	8	4	5	8	10	5	5
18	11	10	6	5	6	6	5
11	6	4	4	5	5	6	6
12	7	6	5	5	5	4	5
13	8	4	5	8	10	5	5
66	26	14	16	25	15	19	22
42	14	9	12	16	12	13	13
14	7	5	5	5	5	4	5
12	6	4	5	5	5	4	5
21	14	11	8	5	5	4	5
11	6	5	5	5	6	5	5
13	8	4	5	8	10	9	5
71	32	17	20	19	15	19	19
64	18	9	13	20	15	20	14
12	6	5	5	13	13	13	9
11	6	5	5	5	5	3	5
31	12	7	12	10	15	8	8
25	19	8	11	14	8	12	9
37	21	10	17	14	14	20	12
12	8	5	5	6	9	7	5
16	11	9	6	5	5	4	5
15	10	7	5	8	10	10	7
11	6	5	5	5	6	5	5
11	6	4	4	5	5	5	5
66	19	10	15	19	16	16	13
18	11	10	7	6	5	4	6
15	8	5	6	8	7	7	6
13	9	6	5	9	10	11	6
41	22	11	19	16	13	19	12
13	8	4	5	8	10	9	5
44	15	10	13	21	18	20	14
13	6	5	5	7	8	8	7
43	19	11	16	15	14	14	14
32	17	9	15	20	12	17	18
15	7	6	5	5	5	5	5
64	19	9	15	16	13	15	14
11	6	5	5	12	16	12	9
10	6	5	4	9	10	8	7
11	6	5	5	6	6	4	5
11	6	5	5	5	6	5	5
47	19	10	15	18	15	17	19
51	18	9	15	22	17	16	17
21	14	11	8	5	5	4	5
28	15	9	13	17	12	18	12
13	7	5	5	15	16	14	10
11	6	4	5	5	5	5	5
53	16	9	12	17	18	15	14
11	6	5	5	5	7	6	5
13	8	4	5	8	10	9	5
13	8	4	5	8	10	5	5
12	8	5	5	7	9	8	5
11	6	5	5	6	5	5	5
52	20	10	10	15	14	13	15
11	6	5	5	6	6	4	6
10	6	5	4	11	11	10	8
33	22	11	23	13	13	22	14
22	14	9	7	5	5	3	5
14	8	4	5	8	10	5	5
11	6	5	5	5	7	6	5
13	7	4	5	6	5	9	6
22	13	14	8	7	5	3	5
18	12	12	7	5	5	6	6
61	24	12	14	24	14	19	19
11	6	5	5	5	5	4	5
10	6	5	5	13	16	15	10
33	22	11	19	13	13	22	14
43	17	11	16	27	13	21	22
11	7	4	5	5	5	6	6
37	21	10	17	14	14	20	12
67	33	12	20	22	19	22	23
18	6	5	5	5	5	5	5
15	7	5	5	5	5	4	5
11	6	4	5	6	6	7	6
11	6	4	5	5	5	4	5
13	8	7	5	5	6	6	6
19	14	10	7	11	15	13	9
14	8	4	5	8	10	5	5
58	18	10	12	16	15	15	14
12	7	5	5	5	5	3	5
30	18	11	15	16	11	20	12
13	8	7	6	7	5	4	5
12	7	5	5	17	20	17	11
60	18	9	15	21	20	17	13
46	24	11	17	21	14	16	16
20	12	12	7	5	5	5	5
14	8	4	5	8	10	5	5
10	6	4	4	16	19	15	10
21	13	11	7	5	5	3	5
20	11	11	7	5	5	5	5
29	18	9	17	20	13	19	11
33	19	8	14	16	9	16	8
11	6	5	5	5	7	6	5
52	20	9	10	15	11	12	11
21	13	11	7	5	5	3	5
13	8	5	5	8	10	9	6
16	11	9	6	13	16	17	10
12	7	5	5	5	5	3	5
35	22	11	11	13	8	21	10
14	9	8	6	5	5	4	5
11	6	4	5	5	5	4	5
28	18	8	13	9	10	15	9
12	6	5	5	10	12	14	8
13	8	4	5	8	10	9	5
18	12	12	7	5	5	6	6
22	13	11	8	6	5	4	5
13	8	5	5	8	10	9	5
11	6	5	5	6	5	5	6
50	16	10	12	21	15	21	16
32	22	11	19	13	13	22	14
18	11	12	7	5	5	6	6
11	6	5	5	10	12	14	8
39	19	11	13	21	12	15	18
68	21	10	18	21	19	18	16
11	6	5	5	10	10	10	8
60	18	12	15	28	13	17	16
13	8	5	5	7	9	8	5
13	8	5	5	8	10	9	6
23	6	5	5	8	8	8	7
14	8	4	5	8	10	5	5
21	13	11	8	6	5	4	6
45	19	12	14	23	13	17	14
61	21	11	14	15	11	15	12
48	17	9	15	22	16	17	17
22	13	12	8	6	5	4	6
23	6	5	5	5	5	5	5
44	19	11	14	26	14	21	20
46	20	11	15	22	13	15	14
14	8	4	5	8	10	5	5
15	9	6	5	8	10	10	6
11	6	5	5	13	17	13	10
11	6	4	5	5	5	5	5
31	14	8	12	16	14	12	14
11	6	5	5	6	7	7	6
13	8	5	5	11	12	13	9
12	7	5	5	6	9	7	5
40	15	8	8	12	6	10	7
12	7	7	5	7	8	8	6
15	11	9	6	9	12	12	8
14	8	4	5	8	10	5	5
12	6	4	5	5	5	3	5
71	30	16	17	21	16	19	18
11	6	4	5	5	5	6	6
39	21	10	22	14	11	24	13
14	8	4	5	8	10	5	5
11	6	4	5	5	5	5	5
13	7	5	5	5	5	3	5
12	6	4	5	6	6	8	6
11	6	5	5	13	16	14	10
11	6	5	5	5	7	6	5
11	6	5	5	5	7	6	5
18	12	9	6	9	13	12	8
29	19	9	17	21	13	19	13
61	20	11	15	18	14	19	14
16	11	8	6	9	11	12	8
20	11	10	7	5	5	4	5
17	10	7	6	5	5	4	5
54	20	11	13	18	15	15	18
11	6	5	5	5	5	6	6
12	6	4	5	6	5	7	6
13	8	5	5	5	5	4	5
11	6	5	5	6	5	3	5
13	8	5	5	8	10	9	6
11	6	4	5	5	5	5	5
14	8	4	5	8	10	5	5
21	13	13	7	5	5	5	5
13	8	7	5	5	6	6	6
62	21	12	16	18	15	12	18
37	18	11	15	19	15	21	20
11	7	6	5	10	11	12	9
11	6	5	5	6	6	5	6
10	6	5	5	9	11	9	7
11	6	4	4	5	5	6	6
20	13	5	6	8	6	9	6
13	8	5	5	8	10	10	6
57	24	10	14	22	15	20	16
11	6	5	4	5	5	3	5
11	7	6	5	7	6	8	6
53	18	9	13	17	17	18	16
11	6	5	5	5	5	5	5
23	15	12	8	5	5	4	5
18	11	10	6	5	5	4	5
56	23	10	13	20	14	19	15
12	7	5	5	6	5	4	5
11	6	4	5	5	5	4	5
14	8	4	5	8	10	5	5
13	8	7	5	5	5	4	5
14	10	8	6	9	12	13	8
46	18	11	14	19	13	16	17
12	6	5	5	5	5	4	5
49	21	12	16	25	11	10	17
10	6	5	5	13	14	10	8
12	7	5	5	8	8	9	7
60	20	9	15	15	9	17	14
20	13	9	7	5	5	3	5
12	7	6	5	5	5	4	5
11	6	5	5	6	6	6	6
11	6	4	5	6	6	7	6
14	8	4	5	8	10	5	5
35	22	11	11	13	8	20	10
46	17	9	13	19	13	12	15
63	32	11	20	20	18	19	18
16	9	9	6	5	5	3	5
58	21	14	19	27	13	21	22
13	8	4	5	8	10	5	5
32	13	8	12	18	12	17	14
26	12	6	8	10	6	10	7
73	29	15	18	23	15	20	18
13	8	5	5	8	10	9	5
45	21	12	17	15	15	14	16
31	14	10	11	18	13	17	13
11	6	5	5	5	7	6	5
36	18	10	15	21	10	14	14
36	20	10	13	17	12	18	10
11	6	5	5	5	7	6	5
37	23	10	16	17	12	20	17
30	13	8	12	18	11	16	12
11	6	4	5	6	5	7	6
11	6	4	5	5	5	4	5
14	8	4	5	8	10	5	5
14	8	4	5	8	10	5	5
51	21	9	11	13	15	10	11
14	8	4	5	8	10	5	5
20	12	13	7	5	5	5	5
14	8	4	5	8	10	5	5
14	8	7	5	5	5	7	6
21	14	12	8	6	5	3	5
39	19	9	16	13	14	20	12
44	25	13	18	19	13	20	22
28	15	11	13	22	11	15	17
13	6	5	5	7	8	7	7
51	20	9	10	13	15	10	10
13	8	4	5	8	10	9	5
14	8	4	5	8	10	5	5
13	9	5	5	8	10	9	6
11	6	4	4	6	5	7	6
14	8	4	5	8	10	5	5
12	8	6	5	8	10	10	7
11	6	5	5	5	5	3	5
39	22	11	12	15	10	18	10
30	18	11	24	15	9	18	11
39	22	10	17	15	14	21	12
14	7	4	5	14	14	14	10
12	6	5	5	11	12	13	9
12	7	5	5	6	7	5	6
41	21	9	19	13	14	23	11
63	21	10	13	21	14	20	15
11	6	5	5	5	7	6	5
11	6	5	5	5	5	4	6
12	6	5	5	9	11	10	7
15	7	5	5	10	11	10	8
13	8	5	5	13	14	14	10
14	10	8	6	8	10	10	7
13	8	6	5	5	5	4	5
25	11	6	11	11	6	12	8
12	9	19	5	13	17	15	10
21	12	11	7	6	5	6	6
11	7	5	5	6	9	8	5
63	18	12	19	29	16	18	16
11	7	5	5	5	6	6	6
40	22	11	12	16	10	17	10
11	6	5	5	5	7	6	5
13	9	6	5	8	11	10	6
12	6	4	4	6	5	5	5
18	12	12	7	5	5	6	6
11	6	5	5	5	5	4	5
14	8	4	5	8	10	5	5
14	9	6	5	10	11	12	7
12	6	4	4	6	5	6	5
49	16	10	11	18	14	15	9
18	9	10	6	5	5	5	6
11	6	5	5	5	5	4	5
22	13	11	7	5	5	4	5
14	8	4	5	8	10	5	5
48	21	10	14	18	13	19	20
23	6	4	5	7	6	6	6
17	7	7	5	5	5	4	5
13	6	4	5	6	5	5	6
13	6	4	5	6	5	5	6
13	8	5	5	7	7	5	6
11	6	5	5	14	15	12	9
15	10	8	6	7	6	5	6
53	20	10	10	17	15	14	13
12	9	18	5	7	6	8	7
25	16	6	7	9	9	13	8
15	9	7	6	5	5	4	5
18	12	9	7	5	5	4	5
12	7	5	5	16	19	15	10
71	24	12	13	20	15	16	19
49	18	9	15	22	16	19	15
11	6	5	5	5	5	4	5
12	8	5	5	8	10	9	6
22	13	12	7	6	5	7	6
23	13	12	7	5	5	6	6
49	15	8	12	18	13	15	12
41	17	11	11	16	13	14	10
11	7	5	5	5	7	6	5
16	18	19	6	9	13	13	8
13	8	4	5	8	10	5	5
18	11	10	6	5	6	5	6
67	19	9	15	20	19	15	13
14	7	4	5	8	9	11	8
11	6	5	5	13	14	13	9
13	7	5	5	7	7	5	6
18	11	9	7	5	5	4	5
11	6	5	5	9	10	10	8
16	16	14	6	9	12	12	8
35	22	11	11	14	8	21	10
46	18	10	17	23	12	17	19
52	17	10	10	15	12	13	11
54	20	11	13	18	15	16	18
21	12	10	8	7	5	4	5
11	6	5	5	6	5	4	5
14	9	6	5	8	10	9	6
28	14	9	11	16	11	13	10
19	13	10	7	7	6	4	5
18	11	10	6	5	6	6	6
13	6	5	5	10	10	9	7
13	6	5	5	11	12	12	9
12	6	5	5	8	9	9	7
51	14	10	14	23	16	20	18
11	6	5	5	5	5	3	5
20	14	11	7	14	18	18	10
18	12	11	6	5	5	5	6
67	16	8	14	24	13	20	16
19	8	7	5	5	5	5	6
40	17	11	11	16	13	14	10
13	8	4	5	8	10	5	5
55	20	11	16	21	14	19	15
14	7	6	5	5	5	4	5
68	25	13	18	13	12	15	16
12	6	5	5	16	19	17	11
11	7	5	5	6	9	7	5
19	9	10	6	6	5	7	6
39	20	9	12	14	7	9	7
31	19	9	14	21	11	19	13
11	6	5	5	10	11	14	8
66	26	13	18	29	13	21	19
41	24	10	14	15	13	24	12
16	10	7	6	5	5	4	5
23	14	10	8	5	5	3	5
11	6	5	5	5	5	3	5
55	21	10	16	18	15	13	19
10	6	4	4	5	5	5	5
48	14	10	15	24	11	15	14
13	7	5	5	13	16	16	10
63	22	10	11	16	14	13	11
11	6	4	5	5	5	5	5
13	6	5	5	9	11	10	8
13	8	4	5	8	9	8	5
13	6	5	5	6	6	5	6
14	9	6	5	8	11	10	7
11	6	5	5	10	11	11	8
50	16	9	14	21	17	18	18
14	8	4	5	8	10	5	5
61	15	9	12	23	13	18	16
14	8	4	5	8	10	5	5
36	17	9	14	21	12	15	14
14	8	4	5	8	10	5	5
13	8	4	5	8	10	9	5
11	6	5	5	5	7	6	5
11	7	5	5	5	5	3	5
14	8	4	5	8	10	5	5
12	6	5	5	5	5	4	5
13	8	5	5	5	5	5	5
11	7	5	5	6	9	7	5
41	18	10	14	17	13	17	12
13	9	6	5	8	11	10	7
13	8	5	5	8	10	9	6
11	6	5	5	5	5	4	5
18	11	14	7	7	5	4	5
48	14	10	16	24	12	16	14
19	12	11	7	5	5	4	5
12	6	5	5	5	5	4	5
22	14	13	8	12	15	18	10
63	20	9	13	21	14	20	15
67	22	11	14	15	11	15	12
11	6	5	5	5	5	4	5
13	8	4	5	8	10	5	5
11	6	4	4	6	5	6	5
64	20	10	18	21	19	18	15
13	8	5	5	14	16	14	10
26	14	9	11	16	11	15	10
11	6	5	5	5	5	6	6
36	17	11	12	22	14	20	21
10	6	5	5	13	15	13	10
39	24	12	19	14	10	21	14
55	20	11	15	18	13	12	16
11	6	5	5	6	5	3	5
43	18	10	13	25	14	18	19
12	7	5	5	6	7	5	6
32	14	9	11	15	12	13	11
42	22	9	15	13	14	21	9
12	6	5	5	11	12	13	9
19	13	11	7	12	14	18	10
11	6	5	5	5	5	4	5
15	11	9	6	8	11	11	7
50	28	15	17	18	13	18	16
14	9	7	5	10	11	12	8
11	6	5	5	5	5	5	5
13	7	5	6	10	10	12	8
15	10	7	6	5	5	5	5
44	14	9	11	19	17	15	11
13	6	5	5	15	15	14	10
58	22	13	17	25	11	10	17
19	7	5	5	5	5	5	6
22	13	11	7	5	5	4	5
25	12	12	7	5	5	5	6
13	8	4	5	8	10	5	5
29	11	6	8	10	6	9	7
11	6	5	5	6	5	7	6
16	10	7	5	5	5	4	5
13	8	5	5	8	9	8	5
56	24	12	19	23	16	23	26
53	20	10	11	17	15	14	13
11	6	4	5	6	7	9	6
43	19	8	18	16	14	20	14
15	8	5	5	7	7	5	6
12	6	5	5	5	5	4	5
11	7	5	5	6	7	6	6
42	17	11	14	19	12	15	16
12	8	19	5	8	8	10	8
13	8	6	5	11	13	8	7
14	8	4	5	8	10	5	5
11	7	5	5	5	5	3	5
11	6	5	5	5	5	3	5
19	11	5	5	8	5	7	6
15	11	8	6	8	11	11	7
63	20	10	12	19	19	14	15
13	8	5	5	8	10	9	5
14	6	5	5	6	5	5	6
12	6	5	5	5	5	4	5
11	6	4	5	5	5	5	5
42	19	8	18	16	14	20	14
12	6	4	5	7	7	8	7
17	11	9	6	11	14	14	8
11	6	4	4	5	5	5	5
11	6	5	5	10	11	11	8
24	16	8	11	19	15	20	16
19	13	11	7	5	5	4	5
54	23	13	18	17	13	18	19
10	6	4	4	5	5	4	5
12	6	5	5	5	5	3	5
11	6	5	5	5	7	6	5
13	9	6	5	8	10	9	6
58	25	13	16	25	13	19	22
17	16	15	6	9	12	12	8
10	6	5	4	6	5	7	6
16	9	7	5	8	10	11	7
34	15	9	14	19	13	19	12
14	8	5	6	8	7	7	6
14	8	4	5	8	10	5	5
11	6	6	5	5	5	3	5
16	10	9	6	6	5	7	6
12	8	5	5	6	9	8	6
13	6	5	6	10	10	10	7
13	7	5	6	9	10	10	7
11	6	5	5	10	10	10	8
37	21	9	17	15	14	20	13
15	12	9	6	10	14	12	8
41	21	9	19	13	14	23	11
12	8	19	5	17	20	17	10
14	6	4	5	7	6	8	6
17	11	10	6	13	16	18	10
13	8	4	5	8	10	5	5
42	14	8	12	17	12	13	13
11	7	6	5	5	5	3	5
11	7	5	5	5	5	3	5
59	17	9	11	19	14	17	14
11	6	5	5	5	6	5	5
44	25	13	18	20	13	24	23
11	6	4	4	5	5	3	5
30	15	10	15	18	12	13	16
12	8	4	5	7	9	7	5
14	8	6	5	5	5	4	5
62	21	12	16	18	15	12	18
13	9	5	5	8	10	9	6
14	8	4	5	8	10	5	5
12	7	6	5	7	5	3	5
19	11	11	7	5	5	4	5
14	9	7	5	5	5	4	5
10	6	5	4	13	16	15	10
14	10	8	6	10	12	14	8
27	16	11	13	22	11	16	20
14	8	4	5	8	10	5	5
18	11	10	6	6	5	6	6
11	6	4	5	5	5	5	5
14	8	4	5	8	10	5	5
36	20	10	13	15	12	18	10
13	8	4	5	8	10	5	5
21	13	11	7	5	5	3	5
10	8	18	4	5	5	5	5
13	7	4	5	6	6	8	6
46	14	10	11	22	12	18	17
14	8	4	5	8	10	5	5
14	9	6	5	9	11	11	7
77	23	13	17	21	13	14	16
21	14	12	8	6	5	4	5
54	19	9	18	16	14	18	14
53	17	10	15	18	14	15	16
13	7	5	5	8	9	12	8
13	9	6	6	9	11	12	7
22	13	11	7	5	5	5	6
23	13	12	8	6	5	4	6
21	12	11	7	5	5	6	6
13	8	4	5	8	10	5	5
69	29	14	17	29	15	16	22
15	11	9	6	6	5	3	5
43	14	9	15	19	12	17	19
15	9	8	6	5	5	3	5
14	8	4	5	8	10	5	5
12	9	18	5	7	7	10	8
21	12	11	7	5	5	4	5
12	9	19	5	6	6	7	6
13	8	4	5	8	10	5	5
11	6	4	5	6	6	7	6
12	6	5	5	9	10	11	7
14	8	4	5	8	10	5	5
16	10	9	6	11	13	15	9
20	15	11	7	12	16	14	9
74	23	15	18	33	14	17	19
13	8	5	5	8	8	11	7
21	13	10	7	7	6	4	5
43	14	9	12	17	12	17	11
12	6	5	5	5	5	4	5
11	6	5	5	5	5	3	5
15	7	6	5	10	11	10	8
23	13	12	8	6	5	4	6
19	10	5	5	8	5	7	6
15	9	8	5	5	5	4	5
15	16	18	5	7	11	9	7
42	19	10	15	18	14	15	15
12	6	5	5	5	5	4	5
12	6	5	5	8	8	8	7
22	13	12	8	6	5	4	6
13	8	5	5	7	7	10	7
11	7	5	5	6	7	6	6
40	17	10	10	16	13	14	10
10	6	4	4	5	5	3	5
11	6	5	5	5	6	5	5
11	6	5	5	5	7	6	5
32	20	9	14	17	12	20	10
18	8	9	6	5	5	4	5
11	6	5	5	7	8	9	7
38	19	10	13	21	15	18	13
12	6	4	5	5	5	4	5
16	11	9	6	13	15	17	10
60	19	10	11	18	17	15	16
11	6	5	5	5	5	4	5
60	15	10	12	22	12	17	16
13	8	6	5	8	10	10	6
20	13	11	7	6	5	6	5
59	22	12	16	25	17	18	22
13	8	4	5	8	10	9	5
61	26	13	16	26	15	15	20
62	24	13	15	24	14	19	19
18	12	10	7	5	5	4	5
49	16	11	14	23	15	21	19
13	8	5	5	8	10	9	6
32	19	10	16	22	12	18	16
22	15	12	8	6	5	4	5
12	6	4	5	13	17	15	10
15	19	19	6	8	11	11	7
11	9	18	5	7	6	9	7
19	12	11	6	6	5	5	6
14	8	4	5	8	10	5	5
11	6	5	5	5	7	6	5
11	6	4	4	6	5	8	6
48	20	9	11	17	12	13	12
15	17	19	6	8	12	11	8
11	7	5	5	6	10	8	5
11	8	11	5	7	5	4	5
10	6	5	4	13	16	14	9
53	21	12	16	15	12	16	15
11	6	4	5	5	5	5	5
11	6	4	5	6	10	8	5
16	10	9	6	5	6	6	6
55	18	9	11	15	13	14	14
26	16	6	7	9	9	14	8
11	6	5	5	5	6	5	5
11	6	5	5	5	5	4	5
14	8	4	5	8	10	5	5
49	21	12	14	22	13	16	19
14	8	4	5	8	10	5	5
12	8	5	5	8	10	10	6
11	6	5	5	5	6	5	5
24	16	6	7	8	8	13	7
13	6	5	5	10	10	9	7
11	7	6	5	6	5	3	5
34	23	9	12	14	9	22	10
14	6	4	5	6	6	7	6
18	11	10	6	5	6	6	6
13	8	7	5	5	5	6	6
55	14	9	11	18	17	15	16
12	7	5	5	6	5	5	5
18	10	7	6	5	5	4	5
44	25	13	18	19	13	24	23
11	8	19	4	5	5	5	6
13	8	4	5	8	10	8	5
13	7	5	6	10	10	11	8
11	6	4	5	5	5	4	5
33	20	9	12	15	8	12	9
49	15	9	15	21	18	16	17
11	6	4	5	7	7	7	6
11	6	4	5	5	5	4	5
10	6	5	5	5	5	3	5
35	20	11	15	20	14	20	20
12	6	4	4	5	5	3	5
14	7	4	5	7	7	9	7
13	7	5	5	5	5	3	5
43	17	11	18	20	15	15	20
17	12	11	6	6	5	5	6
16	10	8	6	5	5	4	5
41	17	10	11	16	13	14	10
15	9	8	6	6	5	4	5
11	6	5	5	5	5	4	5
29	19	10	17	21	13	19	11
43	24	11	15	16	13	18	17
19	12	11	6	5	5	5	6
12	6	5	5	6	6	6	6
38	20	11	18	15	10	18	13
13	6	5	5	9	10	9	8
20	13	10	7	5	5	4	5
44	16	10	13	21	18	20	14
11	6	4	5	5	5	4	5
63	26	14	16	24	14	19	19
13	6	5	5	6	6	6	6
12	9	19	5	7	7	9	7
21	11	8	7	5	5	4	5
10	6	5	5	13	13	12	9
14	6	5	5	5	5	4	5
14	9	8	6	5	5	7	6
21	14	11	8	6	5	4	5
15	7	5	5	9	9	8	7
30	21	10	16	14	11	21	12
11	7	7	6	5	5	3	5
11	6	4	5	7	7	7	6
11	7	7	5	5	5	3	5
11	6	5	5	10	11	13	8
18	12	9	7	5	5	4	5
14	8	4	5	8	10	5	5
14	8	4	5	8	10	5	5
11	7	6	5	5	5	4	5
48	15	7	12	17	17	13	12
10	6	4	4	5	5	4	5
13	8	4	5	8	9	8	5
21	14	12	8	6	5	4	5
11	8	19	5	6	6	6	6
20	12	11	7	6	5	7	6
34	22	11	23	13	13	22	14
77	36	13	22	20	18	15	24
77	31	13	21	18	18	16	24
11	7	6	5	6	5	4	5
11	7	5	5	6	10	8	5
14	8	4	5	8	10	5	5
14	8	6	5	5	5	4	5
13	8	5	5	7	6	9	7
12	17	17	5	6	10	8	6
41	16	10	13	18	13	16	17
15	17	18	6	7	12	11	7
14	18	18	6	8	11	9	7
11	6	5	5	6	7	6	6
63	20	10	18	19	19	18	15
57	24	10	14	23	15	20	16
12	6	5	5	6	5	4	5
12	7	6	5	5	6	6	6
11	7	14	5	5	5	5	5
14	8	4	5	8	10	5	5
29	17	12	16	23	13	18	20
73	30	15	19	24	15	21	21
13	8	5	5	8	10	9	6
41	16	10	13	18	13	19	19
61	22	11	11	15	14	12	11
11	7	6	5	6	5	4	5
11	7	5	5	5	6	5	5
45	19	12	17	24	13	15	20
15	11	8	6	12	15	14	9
53	19	11	13	17	14	14	16
13	8	5	5	13	13	14	9
12	6	5	5	11	11	13	8
12	9	18	5	12	13	14	10
12	6	5	5	17	20	17	11
10	6	4	4	5	5	5	5
28	16	6	10	9	9	15	8
33	22	12	19	13	14	22	14
55	23	11	13	26	15	15	18
10	6	4	4	5	5	5	5
13	7	5	6	10	10	11	8
29	16	8	12	20	15	21	18
21	13	8	7	5	5	4	5
34	13	9	14	21	11	20	16
13	8	4	5	8	10	5	5
23	6	5	5	5	5	5	5
17	8	8	5	5	5	4	5
65	23	12	14	17	12	14	13
13	10	8	6	9	12	10	7
40	17	9	9	13	15	20	12
39	20	9	12	13	7	10	7
36	20	10	13	17	12	19	10
12	6	5	5	13	14	14	10
13	8	4	5	8	10	5	5
48	15	11	18	23	11	16	16
11	6	5	5	5	7	6	5
51	16	8	12	16	13	12	11
12	8	4	5	7	8	7	5
13	8	4	5	8	10	5	5
11	6	5	5	10	10	11	8
14	8	4	5	8	10	5	5
10	6	5	5	9	11	8	7
15	10	8	6	9	11	13	7
11	6	4	5	11	12	12	9
18	14	13	8	5	5	3	5
50	17	11	16	22	16	20	18
12	8	5	5	7	9	8	5
15	7	5	5	6	6	6	6
11	6	5	5	10	10	11	8
14	10	12	6	7	5	4	5
11	6	4	4	6	7	7	6
12	6	5	5	10	12	13	9
12	8	5	5	6	10	8	6
63	20	9	16	21	16	21	16
20	13	11	8	6	5	4	5
21	13	11	7	5	5	3	5
14	8	4	5	8	10	5	5
11	6	4	4	5	5	5	5
56	16	9	10	18	14	16	13
13	7	5	5	10	12	14	9
10	6	5	5	6	6	4	6
13	8	4	5	8	10	9	5
10	6	5	5	8	9	8	6
55	20	12	13	24	14	19	17
11	6	5	5	14	15	12	9
56	17	10	12	20	16	15	11
37	20	11	15	19	14	19	20
12	7	5	5	5	5	3	5
71	21	11	11	18	17	14	16
54	20	10	10	16	15	14	13
17	12	9	6	9	12	13	8
15	12	9	6	9	13	12	8
53	20	9	10	14	15	10	11
43	24	13	17	19	12	20	18
11	6	5	5	10	10	10	8
12	6	5	5	10	11	11	8
13	7	5	5	9	9	13	8
57	24	10	14	21	15	19	16
13	8	4	5	8	10	5	5
54	21	13	18	29	15	21	24
13	8	5	5	8	10	9	6
17	12	8	6	9	12	14	8
36	24	10	13	15	12	24	11
11	6	4	4	5	5	3	5
14	8	4	5	8	10	5	5
11	6	5	5	10	12	14	8
12	6	5	5	5	5	4	5
17	12	10	7	12	15	16	9
13	8	5	5	7	9	8	5
54	19	9	15	21	18	20	17
10	6	5	5	5	5	3	5
30	18	11	24	15	9	18	11
14	8	4	5	8	10	5	5
11	7	6	5	10	12	13	9
11	6	5	5	5	5	5	5
30	21	10	14	17	11	18	10
31	14	10	11	19	14	19	14
12	6	5	5	9	9	11	8
12	8	10	7	5	5	3	5
17	10	9	6	5	5	4	5
13	6	4	5	11	12	12	9
35	23	11	13	15	12	24	11
12	6	5	5	6	5	3	5
11	7	5	5	6	10	8	5
38	20	9	12	14	7	9	7
45	17	10	14	20	12	14	15
11	6	4	5	9	10	9	7
11	7	6	5	7	6	8	7
11	6	4	5	5	5	4	5
10	6	5	5	7	7	5	6
60	25	12	15	20	13	16	13
12	6	5	5	5	5	4	5
38	20	11	18	15	11	18	13
33	19	8	14	17	11	17	9
59	20	11	14	19	11	11	18
40	18	9	16	19	14	13	17
11	6	4	5	6	5	7	6
15	16	18	6	7	11	10	7
14	8	4	5	8	10	5	5
14	8	4	5	8	10	5	5
17	9	7	6	5	5	5	5
13	7	5	6	10	10	10	7
11	7	4	5	6	9	7	5
13	8	4	5	8	10	5	5
11	6	4	5	6	6	8	7
45	16	9	13	17	12	17	11
71	17	11	17	26	14	15	16
19	11	5	5	8	6	8	6
17	11	12	6	5	5	6	6
41	15	8	13	21	17	16	16
11	7	5	5	6	7	6	5
38	20	11	18	15	10	18	13
11	6	5	5	5	5	4	5
11	6	5	5	11	12	13	9
60	26	14	16	24	13	19	19
45	17	11	14	19	13	16	17
11	6	5	5	5	5	4	5
16	19	19	6	9	12	12	8
13	6	5	5	7	6	6	6
58	22	12	14	24	14	19	18
12	9	19	5	6	7	8	7
21	12	11	7	5	5	6	6
23	6	5	5	8	8	9	7
11	6	4	5	5	5	4	5
11	6	4	5	9	10	10	7
32	22	11	22	14	13	22	14
59	18	12	14	21	12	14	15
11	6	4	4	6	5	7	6
17	8	8	6	5	5	4	5
19	13	10	7	5	5	4	5
11	6	4	4	5	5	6	5
23	6	4	5	6	5	6	5
14	8	4	5	8	10	5	5
13	9	7	6	9	11	12	7
49	18	9	14	19	14	12	16
11	6	5	5	10	12	13	9
20	12	11	7	6	5	4	6
15	19	19	6	8	11	11	7
40	17	7	9	13	14	17	10
23	6	4	5	7	6	6	6
10	6	5	5	14	15	13	9
48	17	9	14	17	15	16	15
11	6	5	5	5	5	4	5
11	6	5	5	5	6	5	5
12	9	18	5	11	11	13	9
29	19	9	17	20	13	19	11
47	15	7	12	18	14	15	12
10	6	5	4	13	16	14	9
50	21	10	16	19	14	20	20
12	8	6	6	6	5	3	5
14	8	4	5	8	10	5	5
32	11	6	8	10	6	10	7
11	6	5	5	5	5	4	5
26	14	9	11	17	12	16	10
12	6	5	5	10	11	10	8
11	6	5	5	6	6	6	6
20	13	12	8	5	5	3	5
14	8	4	5	8	10	5	5
20	15	14	8	5	5	3	5
16	11	9	6	13	15	17	9
52	20	11	11	15	14	13	15
67	33	11	20	20	16	20	23
18	9	9	6	5	5	5	5
11	6	5	5	5	5	5	6
11	6	5	5	6	6	6	6
13	7	6	5	5	5	4	5
49	17	10	12	16	15	16	13
61	18	9	15	21	20	17	13
11	6	5	5	5	5	3	5
11	6	5	5	5	5	4	5
12	6	5	5	9	10	10	8
73	17	9	18	25	18	19	18
13	8	4	5	8	10	5	5
13	8	4	5	8	10	5	5
32	22	11	22	14	13	22	14
12	8	10	6	5	5	3	5
10	6	5	5	6	6	4	6
12	6	4	5	6	5	7	6
13	7	5	5	15	18	13	9
11	7	5	5	5	9	7	5
12	6	5	5	5	5	4	5
59	25	12	15	26	12	20	16
12	6	5	5	6	6	4	5
11	6	4	5	7	8	8	7
19	11	9	6	9	12	13	8
11	6	5	5	5	7	6	5
25	18	8	11	14	9	13	9
66	20	10	12	18	17	15	17
66	24	12	14	17	12	14	13
64	20	11	14	13	13	15	12
20	13	12	8	6	5	3	5
11	6	4	5	10	11	11	8
11	6	5	5	13	16	15	11
76	23	13	17	21	13	14	16
11	6	5	5	10	12	15	8
11	9	18	4	6	5	7	6
43	19	9	19	14	14	20	14
11	7	5	5	5	5	5	5
11	7	5	5	5	5	4	5
12	6	5	5	13	13	14	9
56	17	10	12	21	16	14	11
40	19	11	19	22	12	18	11
11	6	5	5	5	5	3	5
12	6	4	4	5	5	3	5
70	30	14	19	26	14	23	21
48	23	12	22	24	15	19	12
12	8	5	5	15	16	15	10
13	7	5	6	9	9	10	7
14	7	4	5	10	12	12	8
42	17	11	15	23	12	20	22
46	21	12	17	15	15	14	16
13	7	5	6	10	10	11	8
66	20	9	16	18	13	16	14
52	16	9	15	22	18	19	18
11	9	18	5	7	6	8	6
15	10	8	6	10	12	14	8
47	26	12	17	17	13	18	17
12	8	8	6	6	5	4	5
41	19	11	21	23	12	20	12
18	13	10	7	12	15	18	10
11	6	5	5	13	15	13	10
10	6	5	4	13	13	12	9
66	18	9	15	20	16	17	13
36	23	10	13	14	12	22	11
82	34	16	20	28	16	19	20
15	7	5	6	6	5	5	6
13	8	5	5	8	10	9	5
24	15	12	8	6	5	4	5
11	7	5	5	6	10	8	5
38	21	10	16	19	14	15	20
12	6	5	5	6	5	4	5
11	8	7	6	6	5	4	5
60	22	12	16	25	17	20	22
16	12	9	6	9	12	12	8
13	8	4	5	8	10	5	5
12	8	7	5	8	11	10	6
20	13	10	6	10	14	15	9
32	22	11	22	14	13	22	14
11	6	5	5	5	5	4	5
11	7	5	5	5	5	3	5
17	10	7	6	9	11	12	7
13	8	4	5	8	10	8	5
23	15	13	7	12	15	18	10
62	19	10	11	16	14	13	12
11	6	5	5	5	5	3	5
11	6	4	5	9	10	10	7
31	25	9	13	21	15	18	16
50	15	8	12	17	12	13	11
13	8	5	5	8	10	9	6
59	20	13	16	24	14	20	20
15	7	5	5	10	11	10	8
39	19	9	16	13	14	20	12
11	6	5	5	5	7	6	5
34	18	10	15	20	10	14	14
13	8	5	5	8	10	9	6
10	6	5	5	10	14	11	8
20	11	9	7	7	5	4	5
73	23	15	18	33	14	17	19
12	6	5	5	8	8	9	7
11	9	18	5	7	6	9	7
12	7	5	5	6	7	7	6
39	21	10	22	14	10	24	13
12	6	4	5	5	5	5	5
25	18	8	11	14	8	12	9
11	6	4	5	5	5	4	5
14	8	6	5	5	5	4	5
11	6	5	5	5	5	5	5
41	20	9	19	13	14	23	11
33	18	8	14	13	8	16	8
16	12	9	6	9	13	13	8
14	8	4	5	8	10	5	5
18	13	10	7	14	17	19	11
14	8	4	5	8	10	5	5
38	17	10	13	18	15	16	12
12	9	19	5	11	13	13	9
14	6	5	5	5	5	4	5
67	26	13	18	31	14	21	19
39	20	9	12	12	7	9	7
59	23	10	14	20	14	17	13
11	6	5	5	5	7	6	5
47	18	9	13	16	16	18	15
61	18	11	16	31	17	18	15
14	8	4	5	8	10	5	5
13	7	5	6	10	10	11	8
53	18	9	13	17	17	17	15
15	16	18	6	7	11	10	7
11	6	5	5	13	14	14	10
16	9	6	6	6	5	6	5
14	7	5	6	6	6	5	6
13	8	5	5	8	10	9	5
13	8	5	5	8	10	9	6
12	6	4	5	9	9	9	7
18	11	11	6	5	5	4	5
16	11	10	6	6	5	6	6
13	8	4	5	8	10	9	5
11	6	4	5	5	5	5	5
11	6	5	5	5	7	6	5
11	7	5	5	6	10	8	5
55	19	10	15	20	13	15	15
13	8	5	5	8	10	9	6
13	9	11	6	7	5	4	5
12	7	5	5	5	5	4	5
56	18	10	15	21	19	17	13
11	6	5	5	9	11	11	8
76	30	14	15	29	15	19	17
12	9	9	6	6	5	4	5
48	21	13	16	26	14	20	24
73	25	12	14	26	15	16	19
68	22	11	14	15	12	15	12
12	7	6	5	7	5	3	5
15	7	5	5	11	11	10	8
21	12	11	7	5	5	5	6
15	7	5	5	10	11	10	8
12	6	5	5	6	5	4	5
11	6	4	5	6	5	6	6
18	11	10	6	5	6	5	5
12	9	6	5	9	10	11	7
14	8	4	5	8	10	5	5
11	7	6	5	5	5	3	5
12	7	5	5	5	6	4	5
13	9	9	6	6	5	4	5
11	6	4	5	5	5	5	5
69	19	9	14	19	16	14	13
13	8	5	5	15	16	15	10
13	16	18	5	7	10	9	6
13	8	4	5	8	10	5	5
15	9	8	6	5	5	4	5
11	8	19	5	6	5	6	6
11	6	5	5	5	5	3	5
40	17	9	9	13	15	21	12
40	17	9	15	23	20	23	20
12	9	19	5	7	9	10	7
35	22	11	11	14	8	21	10
12	6	5	5	5	5	4	5
13	8	4	5	8	10	5	5
21	11	9	7	6	5	4	5
11	7	7	5	5	5	3	5
12	6	4	4	6	5	6	5
11	6	4	4	6	5	6	6
16	11	9	6	10	12	15	9
39	20	9	12	14	7	10	7
11	6	5	5	8	9	7	7
13	7	6	5	5	5	5	5
14	10	12	7	5	5	3	5
28	18	7	13	9	10	15	9
69	19	9	14	19	16	14	13
16	9	7	6	5	5	4	5
11	7	5	5	5	4	3	5
36	14	9	10	18	12	20	18